1574673046.00
64.000000
-0.00
-0.00
-0.00
-0.00
-0.00
-0.00
-0.00
-0.00
-0.00
-0.00
0.00
0.01
0.01
-0.00
-0.03
-0.05
-0.05
0.00
0.13
0.36
0.66
1.01
1.37
1.72
2.06
2.40
2.79
3.24
3.80
4.42
5.06
5.66
6.20
6.68
7.15
7.68
8.31
9.14
10.09
11.04
11.88
12.56
13.14
13.76
14.65
15.96
17.91
20.32
22.90
25.38
27.58
29.57
31.68
34.32
37.81
42.54
48.15
54.10
59.83
64.97
69.58
74.14
79.34
85.71
93.76
103.00
112.62
121.73
129.77
136.75
143.30
150.75
157.77
166.64
177.95
191.79
206.97
220.57
228.25
225.36
208.53
176.87
132.76
80.05
23.07
-34.94
-92.44
-149.16
-205.23
-260.37
-313.74
-363.87
-409.83
-450.91
-486.50
-515.74
-537.23
-549.22
-549.96
-538.37
-514.21
-478.67
-433.88
-382.45
-327.02
-269.84
-212.63
-156.66
-102.95
-52.37
-5.90
35.58
71.43
101.35
125.50
144.38
158.69
169.15
176.37
180.75
182.57
182.07
179.51
175.23
169.65
163.18
156.15
148.81
141.30
133.69
126.02
118.33
110.69
103.16
95.80
88.68
81.83
75.25
68.95
62.95
57.25
51.86
46.78
42.03
37.59
33.45
29.61
26.07
22.81
19.83
17.11
14.67
12.48
10.54
8.83
7.35
6.07
4.97
4.05
3.27
2.62
2.09
1.65
1.30
1.01
0.79
0.61
0.48
0.37
0.29
0.24
0.21
0.19
0.18
0.19
0.20
0.22
0.25
0.29
0.33
0.37
0.41
0.46
0.50
0.55
0.60
0.65
0.70
0.77
0.83
0.90
0.97
1.06
1.15
1.26
1.38
1.51
1.66
1.83
2.02
2.22
2.45
2.71
2.99
3.30
3.63
4.00
4.40
4.84
5.31
5.82
6.36
6.94
7.57
8.24
8.94
9.70
10.50
11.34
12.23
13.16
14.15
15.20
16.32
17.50
18.73
20.00
21.26
22.45
23.49
24.25
24.63
24.47
23.69
22.18
19.93
16.93
13.28
9.05
4.47
-0.25
-4.90
-9.24
-13.09
-16.27
-18.69
-20.29
-21.09
-21.16
-20.67
-19.78
-18.65
-17.42
-16.15
-14.83
-13.45
-11.98
-10.42
-8.86
-7.40
-6.10
-4.94
-3.84
-2.66
-1.25
0.53
2.74
5.20
7.74
10.24
12.67
15.19
18.04
21.51
25.75
30.73
35.90
40.66
44.60
47.64
50.06
52.42
55.32
59.12
63.76
68.13
71.20
72.19
71.02
68.38
65.50
63.71
63.80
65.74
67.90
68.47
66.00
59.97
50.90
39.87
27.61
13.42
-0.31
-14.46
-30.78
-51.16
-77.05
-108.98
-146.08
-185.33
-221.57
-248.17
-259.89
-254.34
-233.80
-205.09
-177.36
-158.80
-153.96
-162.77
-181.48
-205.49
-230.53
-253.67
-273.30
-288.67
-299.56
-306.15
-309.04
-308.86
-306.31
-301.60
-294.65
-285.39
-273.97
-260.53
-244.65
-225.20
-200.65
-170.09
-133.70
-92.67
-48.21
-0.27
52.95
113.95
183.66
259.25
333.65
397.46
442.60
465.59
468.85
459.18
444.49
430.44
418.92
408.59
396.91
382.25
364.82
346.09
327.71
310.40
293.84
277.25
260.26
243.41
228.00
215.34
205.83
198.46
191.05
181.16
167.24
149.31
129.07
109.12
91.93
78.91
69.95
63.30
55.70
42.82
20.27
-14.65
-61.24
-114.42
-165.45
-204.43
-223.68
-220.20
-196.21
-157.73
-112.18
-66.38
-25.83
5.16
23.21
26.32
14.72
-8.48
-37.81
-66.96
-90.90
-107.20
-116.12
-119.64
-120.16
-119.51
-118.53
-117.44
-116.12
-114.51
-112.71
-110.94
-109.34
-107.81
-105.94
-103.11
-98.76
-92.66
-85.00
-76.34
-67.37
-58.62
-50.41
-42.89
-36.08
-30.06
-24.86
-20.40
-16.35
-12.24
-7.64
-2.33
3.51
9.33
14.43
18.22
20.39
21.11
20.84
20.18
19.62
19.43
19.57
19.70
19.45
18.56
16.94
14.80
12.41
10.02
7.67
5.22
2.44
-0.81
-4.43
-8.10
-11.45
-14.14
-16.10
-17.33
-17.96
-17.96
-17.24
-15.71
-13.40
-10.61
-7.79
-5.41
-3.83
-3.14
-3.21
-3.73
-4.48
-5.31
-6.13
-6.90
-7.48
-7.69
-7.26
-6.02
-3.97
-1.36
1.35
3.68
5.27
6.03
6.20
6.15
6.20
6.44
6.66
6.49
5.52
3.58
0.75
-2.63
-6.11
-9.27
-11.70
-13.08
-13.11
-11.68
-8.89
-5.09
-0.88
3.06
6.19
8.21
9.17
9.33
9.05
8.66
8.34
8.14
8.00
7.86
7.74
7.72
7.90
8.31
8.87
9.29
9.21
8.34
6.56
4.10
1.42
-0.94
-2.59
-3.55
-4.15
-4.91
-6.23
-8.20
-10.59
-12.86
-14.49
-15.03
-14.20
-11.98
-8.53
-4.17
0.67
5.52
9.98
13.78
16.77
18.94
20.40
21.31
21.87
22.28
22.70
23.19
23.65
23.91
23.78
23.13
21.95
20.31
18.28
15.83
12.86
9.25
5.03
0.50
-3.87
-7.52
-10.12
-11.71
-12.68
-13.68
-15.21
-17.55
-20.58
-23.94
-27.17
-29.78
-31.37
-31.54
-30.02
-26.74
-21.92
-16.13
-10.11
-4.56
0.04
3.58
6.26
8.40
10.28
12.08
13.81
15.35
16.53
17.18
17.11
16.32
14.95
13.34
11.94
11.11
10.97
11.25
11.52
11.31
10.41
8.94
7.26
5.74
4.57
3.67
2.77
1.58
-0.08
-2.35
-5.26
-8.77
-12.78
-16.90
-20.54
-22.93
-23.46
-21.88
-18.50
-14.05
-9.44
-5.44
-2.42
-0.41
0.79
1.41
1.61
1.42
0.90
0.12
-0.75
-1.45
-1.74
-1.51
-0.84
0.01
0.69
0.88
0.50
-0.33
-1.32
-2.22
-2.88
-3.30
-3.67
-4.18
-5.04
-6.42
-8.38
-10.96
-13.98
-17.11
-19.78
-21.31
-21.10
-18.87
-14.77
-9.40
-3.65
1.62
5.84
8.75
10.48
11.27
11.37
10.98
10.20
9.21
8.25
7.61
7.54
8.18
9.50
11.29
13.21
14.90
15.97
16.18
15.49
14.06
12.29
10.64
9.41
8.67
8.12
7.31
5.77
3.31
0.13
-3.09
-5.41
-5.83
-3.63
1.28
8.25
15.89
22.33
25.73
24.74
18.99
9.20
-2.89
-15.07
-25.14
-31.67
-34.22
-33.49
-30.90
-28.00
-25.88
-24.92
-24.88
-25.27
-25.78
-26.37
-27.20
-28.29
-29.32
-29.75
-29.14
-27.45
-25.13
-22.96
-21.60
-21.37
-22.12
-23.39
-24.74
-25.87
-26.63
-26.99
-26.88
-26.12
-24.50
-21.85
-18.16
-13.57
-8.45
-3.22
1.70
5.90
9.20
11.60
13.34
14.76
16.17
17.69
19.22
20.52
21.39
21.79
21.83
21.73
21.63
21.53
21.34
20.90
20.13
19.04
17.68
16.08
14.27
12.23
10.00
7.62
5.11
2.50
-0.24
-3.13
-6.18
-9.38
-12.61
-15.73
-18.37
-20.03
-20.12
-18.16
-14.04
-8.16
-1.36
5.29
10.94
15.16
17.96
19.62
20.42
20.51
19.91
18.61
16.78
14.74
12.87
11.44
10.47
9.69
8.73
7.19
4.95
2.20
-0.61
-2.96
-4.48
-5.03
-4.77
-4.04
-3.23
-2.71
-2.72
-3.49
-5.13
-7.64
-10.76
-13.97
-16.54
-17.70
-16.96
-14.26
-10.05
-5.13
-0.39
3.53
6.30
7.97
8.80
9.09
9.03
8.67
8.07
7.33
6.63
6.17
6.16
6.60
7.27
7.83
7.91
7.29
5.96
4.12
2.13
0.29
-1.28
-2.58
-3.75
-4.97
-6.39
-8.13
-10.36
-13.18
-16.54
-20.10
-23.15
-24.82
-24.34
-21.39
-16.29
-9.90
-3.29
2.70
7.58
11.36
14.23
16.32
17.65
18.08
17.55
16.28
14.72
13.47
13.04
13.61
15.02
16.84
18.43
19.31
19.19
18.08
16.20
13.87
11.36
8.80
6.21
3.53
0.74
-2.16
-5.17
-8.41
-12.13
-16.61
-21.94
-27.77
-33.25
-37.22
-38.59
-36.78
-31.97
-25.06
-17.37
-10.08
-3.92
0.97
4.83
8.02
10.70
12.84
14.23
14.73
14.33
13.22
11.67
9.93
8.21
6.62
5.21
4.01
3.00
2.11
1.23
0.22
-1.04
-2.67
-4.67
-7.02
-9.66
-12.48
-15.42
-18.48
-21.70
-25.08
-28.51
-31.67
-34.01
-34.92
-33.92
-30.94
-26.32
-20.80
-15.15
-10.08
-5.95
-2.76
-0.35
1.57
3.27
4.92
6.69
8.68
10.87
13.05
14.82
15.75
15.55
14.25
12.25
10.09
8.28
7.08
6.51
6.49
6.98
8.02
9.64
11.67
13.65
14.99
15.28
14.52
13.30
12.51
13.03
15.34
19.34
24.48
29.97
35.09
39.30
42.29
43.86
43.93
42.52
39.83
36.26
32.37
28.78
25.94
24.08
23.08
22.60
22.19
21.41
19.87
17.33
13.76
9.35
4.45
-0.49
-5.11
-9.28
-13.26
-17.50
-22.45
-28.27
-34.66
-40.85
-45.81
-48.45
-47.91
-43.72
-36.01
-25.62
-14.10
-3.48
4.21
7.58
6.40
1.80
-4.07
-8.72
-10.13
-7.34
-0.49
9.41
21.06
33.28
45.21
56.34
66.30
74.75
81.32
85.65
87.34
85.86
80.46
70.22
54.28
32.31
4.86
-26.32
-58.44
-88.13
-112.31
-129.04
-138.10
-141.12
-140.72
-139.51
-138.65
-137.41
-133.59
-124.78
-110.17
-91.43
-72.24
-56.54
-46.55
-41.62
-38.88
-35.03
-28.26
-19.20
-10.30
-3.91
-0.89
0.01
1.33
5.00
11.10
17.57
21.44
20.56
14.95
6.96
-0.05
-3.44
-2.80
-0.51
-0.38
-6.18
-19.36
-38.31
-58.88
-75.93
-85.57
-86.71
-81.29
-73.32
-67.18
-66.03
-70.89
-80.67
-92.75
-103.58
-109.52
-106.75
-92.20
-64.37
-24.38
23.22
71.14
111.32
137.80
149.13
148.88
144.14
142.20
147.36
159.30
173.72
185.28
190.39
189.30
185.57
183.75
186.84
194.51
203.59
209.94
210.95
206.64
198.98
190.07
180.11
166.99
147.54
119.65
84.72
47.66
15.54
-5.18
-11.57
-5.35
7.79
20.70
27.61
26.07
17.22
4.34
-9.05
-20.78
-30.85
-40.16
-49.87
-59.89
-68.93
-75.37
-78.18
-77.97
-76.77
-77.14
-80.69
-87.17
-94.57
-100.01
-101.18
-97.43
-89.79
-80.67
-72.23
-65.72
-61.17
-57.53
-53.77
-49.38
-44.71
-40.60
-37.78
-36.40
-35.84
-35.13
-33.31
-30.04
-25.89
-21.75
-18.70
-17.12
-16.55
-16.17
-15.25
-13.87
-12.96
-13.76
-17.01
-22.26
-28.01
-32.24
-33.50
-31.54
-27.37
-23.04
-20.22
-19.67
-20.84
-22.11
-21.80
-18.93
-13.82
-7.72
-2.08
2.21
5.36
8.24
11.78
16.19
20.49
23.34
23.56
21.23
17.69
14.83
14.21
15.94
18.72
20.61
20.19
17.47
13.80
11.18
10.95
13.08
16.28
18.45
18.20
15.23
10.44
5.36
1.02
-2.42
-5.58
-9.13
-13.03
-16.33
-17.49
-15.38
-9.84
-1.99
6.02
12.30
15.66
16.38
15.70
15.05
15.27
16.14
16.63
15.67
13.01
9.45
6.51
5.74
7.75
11.83
16.39
19.36
19.57
16.93
12.47
7.82
4.16
1.75
-0.10
-2.42
-5.84
-10.13
-14.25
-17.00
-17.59
-16.08
-13.49
-10.87
-9.11
-8.16
-7.28
-5.64
-2.84
0.66
3.72
5.12
4.37
2.00
-0.66
-2.06
-1.29
1.48
5.26
8.46
10.08
9.89
8.45
6.80
5.55
4.55
2.98
-0.02
-4.64
-10.12
-15.03
-18.07
-18.82
-17.95
-17.01
-17.28
-19.18
-21.86
-23.74
-23.54
-20.93
-16.69
-12.16
-8.43
-5.86
-4.06
-2.45
-0.66
1.07
2.17
2.16
0.80
-1.46
-3.82
-5.48
-5.96
-5.37
-4.24
-3.27
-2.98
-3.50
-4.58
-5.82
-6.84
-7.52
-7.98
-8.51
-9.33
-10.53
-11.97
-13.33
-14.31
-14.68
-14.42
-13.58
-12.25
-10.45
-8.13
-5.18
-1.67
2.19
5.97
9.26
11.72
13.23
13.95
14.21
14.39
14.82
15.68
16.97
18.51
19.99
21.05
21.34
20.68
19.11
16.94
14.68
12.83
11.74
11.37
11.40
11.33
10.71
9.32
7.31
5.06
3.02
1.57
0.95
1.25
2.41
4.31
6.72
9.28
11.62
13.37
14.35
14.48
13.87
12.68
11.14
9.47
7.87
6.57
5.68
5.19
4.92
4.61
4.01
3.02
1.71
0.29
-1.07
-2.29
-3.49
-4.83
-6.38
-8.13
-9.86
-11.32
-12.17
-12.16
-11.11
-8.99
-5.93
-2.25
1.57
5.07
7.86
9.77
10.88
11.35
11.41
11.23
10.94
10.65
10.48
10.52
10.73
10.94
10.93
10.51
9.62
8.38
6.95
5.52
4.09
2.65
1.11
-0.54
-2.29
-4.07
-5.79
-7.30
-8.36
-8.76
-8.27
-6.84
-4.58
-1.77
1.23
4.13
6.68
8.72
10.09
10.65
10.27
9.02
7.21
5.24
3.58
2.47
1.89
1.58
1.14
0.27
-1.14
-3.01
-5.08
-7.06
-8.67
-9.78
-10.37
-10.56
-10.65
-10.92
-11.55
-12.51
-13.46
-13.91
-13.39
-11.69
-8.92
-5.52
-2.02
1.10
3.56
5.33
6.47
7.08
7.22
6.90
6.22
5.34
4.57
4.25
4.62
5.66
7.10
8.44
9.24
9.23
8.52
7.44
6.44
5.82
5.59
5.48
5.15
4.31
2.83
0.79
-1.64
-4.20
-6.54
-8.32
-9.17
-8.89
-7.49
-5.20
-2.47
0.22
2.51
4.23
5.40
6.12
6.55
6.76
6.76
6.54
6.10
5.55
5.05
4.72
4.67
4.82
5.03
5.12
5.01
4.67
4.16
3.48
2.59
1.41
-0.12
-2.00
-4.14
-6.40
-8.65
-10.80
-12.71
-14.17
-14.92
-14.73
-13.56
-11.61
-9.34
-7.31
-5.90
-5.23
-5.14
-5.32
-5.51
-5.63
-5.75
-6.05
-6.58
-7.24
-7.78
-7.88
-7.26
-5.81
-3.52
-0.52
2.99
6.74
10.39
13.48
15.50
15.95
14.49
11.12
6.34
1.00
-3.84
-7.29
-8.91
-8.91
-7.90
-6.61
-5.53
-4.68
-3.74
-2.36
-0.42
1.80
3.74
4.80
4.62
3.20
0.88
-1.77
-4.18
-5.89
-6.67
-6.53
-5.66
-4.27
-2.52
-0.55
1.52
3.42
4.78
5.23
4.59
2.99
0.89
-1.12
-2.47
-2.85
-2.20
-0.66
1.54
4.13
6.78
9.11
10.78
11.54
11.32
10.28
8.70
6.88
5.02
3.28
1.71
0.41
-0.53
-1.00
-0.99
-0.57
0.01
0.48
0.62
0.35
-0.23
-0.99
-1.82
-2.69
-3.69
-4.93
-6.45
-8.18
-9.86
-11.10
-11.50
-10.74
-8.75
-5.71
-2.09
1.52
4.54
6.50
7.17
6.56
4.91
2.62
0.11
-2.18
-3.93
-4.97
-5.30
-5.02
-4.34
-3.47
-2.59
-1.89
-1.48
-1.48
-1.88
-2.64
-3.68
-4.87
-6.18
-7.54
-8.96
-10.45
-12.06
-13.81
-15.68
-17.61
-19.42
-20.86
-21.60
-21.39
-20.10
-17.84
-14.91
-11.69
-8.52
-5.58
-2.91
-0.55
1.47
2.99
3.85
4.01
3.55
2.78
2.02
1.42
1.01
0.59
-0.10
-1.13
-2.47
-3.93
-5.35
-6.66
-7.91
-9.19
-10.53
-11.84
-12.91
-13.63
-14.04
-14.32
-14.75
-15.48
-16.42
-17.22
-17.37
-16.49
-14.34
-11.06
-6.95
-2.48
1.98
6.17
9.98
13.38
16.33
18.73
20.47
21.50
21.87
21.80
21.63
21.62
21.92
22.49
23.03
23.31
23.10
22.32
21.02
19.31
17.25
14.88
12.26
9.50
6.80
4.30
2.08
0.03
-2.14
-4.76
-7.98
-11.64
-15.18
-17.84
-18.86
-17.83
-14.96
-10.96
-6.76
-3.14
-0.47
1.40
2.86
4.20
5.47
6.52
7.13
7.33
7.41
7.79
8.79
10.41
12.30
13.95
14.89
14.92
14.08
12.61
10.81
8.91
7.09
5.38
3.73
2.02
0.15
-1.92
-4.11
-6.23
-8.02
-9.28
-9.82
-9.55
-8.47
-6.66
-4.30
-1.68
0.87
3.05
4.60
5.44
5.63
5.46
5.35
5.82
7.33
10.08
13.92
18.36
22.72
26.36
28.95
30.45
31.09
31.16
30.89
30.37
29.62
28.65
27.55
26.44
25.45
24.60
23.80
22.92
21.82
20.53
19.32
18.53
18.52
19.47
21.23
23.43
25.55
27.19
28.11
28.26
27.69
26.47
24.61
22.24
19.55
16.88
14.56
12.81
11.68
10.97
10.38
9.56
8.29
6.48
4.20
1.56
-1.22
-3.94
-6.43
-8.50
-10.02
-11.01
-11.55
-11.84
-12.14
-12.66
-13.60
-15.01
-16.86
-18.97
-21.01
-22.61
-23.32
-22.83
-21.06
-18.24
-14.83
-11.36
-8.29
-5.87
-4.13
-3.04
-2.55
-2.68
-3.36
-4.45
-5.70
-6.84
-7.74
-8.48
-9.26
-10.28
-11.56
-12.96
-14.26
-15.32
-16.18
-17.07
-18.24
-19.92
-22.12
-24.75
-27.53
-30.27
-32.86
-35.33
-37.78
-40.28
-42.70
-44.68
-45.76
-45.44
-43.55
-40.29
-36.13
-31.76
-27.73
-24.42
-21.92
-20.14
-18.92
-18.07
-17.43
-16.78
-15.97
-14.89
-13.60
-12.28
-11.19
-10.51
-10.17
-9.87
-9.21
-7.87
-5.86
-3.55
-1.53
-0.41
-0.51
-1.80
-3.87
-6.09
-7.83
-8.62
-8.36
-7.32
-6.08
-5.32
-5.51
-6.70
-8.51
-10.31
-11.55
-11.89
-11.24
-9.62
-7.11
-3.70
0.52
5.35
10.35
15.04
19.02
22.11
24.32
25.79
26.65
26.93
26.68
26.03
25.22
24.52
24.08
23.87
23.61
22.97
21.68
19.65
17.03
14.01
10.77
7.42
3.94
0.36
-3.26
-6.80
-10.09
-12.94
-15.08
-16.19
-15.89
-13.93
-10.34
-5.55
-0.32
4.57
8.57
11.50
13.55
15.01
16.03
16.54
16.34
15.34
13.70
11.90
10.52
9.95
10.22
11.00
11.78
12.09
11.69
10.67
9.28
7.76
6.25
4.74
3.14
1.32
-0.79
-3.24
-6.07
-9.23
-12.65
-16.19
-19.64
-22.69
-25.00
-26.20
-26.01
-24.34
-21.37
-17.58
-13.52
-9.72
-6.42
-3.57
-0.95
1.65
4.24
6.64
8.58
9.92
10.70
11.15
11.58
12.21
13.05
13.92
14.54
14.68
14.26
13.40
12.30
11.14
9.91
8.44
6.46
3.83
0.63
-2.82
-6.08
-8.80
-10.83
-12.25
-13.29
-14.16
-15.01
-15.96
-17.19
-18.84
-20.98
-23.45
-25.76
-27.16
-26.89
-24.49
-20.01
-14.04
-7.50
-1.35
3.77
7.70
10.66
13.07
15.23
17.21
18.81
19.83
20.21
20.18
20.07
20.20
20.58
21.01
21.10
20.56
19.36
17.74
16.03
14.51
13.27
12.22
11.19
9.97
8.40
6.39
3.93
1.04
-2.20
-5.65
-9.14
-12.43
-15.21
-17.12
-17.85
-17.24
-15.41
-12.73
-9.77
-7.06
-4.92
-3.30
-2.00
-0.78
0.39
1.27
1.54
0.96
-0.37
-2.07
-3.66
-4.80
-5.55
-6.25
-7.46
-9.59
-12.71
-16.61
-20.89
-25.22
-29.47
-33.74
-38.21
-43.00
-48.02
-53.01
-57.62
-61.57
-64.73
-67.13
-68.97
-70.52
-71.99
-73.40
-74.40
-74.37
-72.40
-67.69
-59.76
-48.59
-34.67
-18.80
-1.89
15.14
31.34
45.84
57.90
67.03
73.27
77.13
79.32
80.49
80.93
80.58
79.20
76.56
72.67
67.74
62.11
56.11
50.05
44.16
38.59
33.44
28.67
24.18
19.84
15.62
11.54
7.72
4.16
0.74
-2.72
-6.38
-10.16
-13.73
-16.53
-18.05
-17.99
-16.40
-13.66
-10.32
-6.86
-3.66
-0.87
1.40
3.09
4.10
4.34
3.80
2.63
1.11
-0.41
-1.62
-2.30
-2.44
-2.20
-1.87
-1.77
-2.11
-2.91
-4.03
-5.21
-6.26
-7.11
-7.89
-8.92
-10.53
-13.00
-16.39
-20.57
-25.18
-29.65
-33.35
-35.60
-35.97
-34.38
-31.10
-26.76
-22.11
-17.79
-14.15
-11.24
-8.89
-6.95
-5.40
-4.43
-4.27
-5.03
-6.57
-8.49
-10.25
-11.43
-11.87
-11.81
-11.65
-11.83
-12.54
-13.71
-15.05
-16.30
-17.42
-18.57
-20.14
-22.41
-25.43
-29.04
-32.79
-36.26
-39.03
-40.76
-41.13
-39.82
-36.58
-31.42
-24.61
-16.79
-8.72
-1.13
5.50
10.95
15.27
18.59
21.14
23.17
24.92
26.63
28.43
30.34
32.22
33.84
34.99
35.56
35.53
35.02
34.06
32.68
30.77
28.28
25.17
21.46
17.22
12.50
7.41
2.18
-2.80
-6.96
-9.62
-10.27
-8.70
-5.08
0.02
5.88
11.74
16.88
20.71
22.83
23.11
21.87
19.87
18.23
18.15
20.50
25.57
32.92
41.54
50.16
57.63
63.38
67.43
70.37
73.03
75.97
79.07
81.41
81.55
78.16
70.66
59.69
47.00
34.83
25.11
18.79
15.76
15.05
15.59
16.66
18.11
20.13
22.62
24.91
25.68
23.45
17.36
7.58
-4.52
-16.98
-27.94
-36.42
-42.63
-47.49
-52.15
-57.28
-62.84
-68.29
-73.05
-76.92
-80.08
-82.84
-85.35
-87.49
-88.93
-89.32
-88.51
-86.60
-83.70
-79.91
-75.12
-69.16
-61.95
-53.61
-44.63
-35.69
-27.50
-20.60
-15.12
-10.87
-7.41
-4.40
-1.74
0.50
1.97
2.65
2.70
2.59
2.83
3.59
4.67
5.52
5.56
4.48
2.42
-0.15
-2.83
-5.39
-7.95
-10.81
-14.04
-17.34
-20.00
-21.09
-19.94
-16.47
-11.27
-5.44
-0.10
4.02
6.80
8.56
9.83
10.94
11.81
12.21
11.74
10.36
8.26
5.88
3.69
1.78
-0.04
-2.23
-5.01
-8.25
-11.32
-13.32
-13.47
-11.45
-7.62
-3.10
0.59
1.94
0.08
-4.91
-12.00
-19.54
-25.95
-30.26
-32.17
-31.93
-29.77
-25.73
-19.60
-11.32
-1.29
9.60
20.17
29.66
37.89
45.25
52.35
59.20
64.96
67.99
66.54
59.61
47.43
31.50
13.92
-3.31
-18.94
-32.77
-45.16
-56.82
-68.00
-78.12
-85.63
-88.24
-83.66
-70.45
-48.58
-19.70
13.45
47.85
81.20
112.31
140.98
167.56
192.01
214.08
233.14
248.76
260.84
269.28
273.65
272.95
265.93
251.78
230.68
203.94
173.48
141.08
107.74
73.41
37.69
0.39
-38.00
-76.24
-112.99
-147.15
-178.13
-205.75
-229.61
-248.52
-260.23
-261.70
-250.02
-224.09
-185.88
-140.64
-96.12
-59.67
-36.02
-25.54
-24.46
-27.16
-28.68
-26.73
-21.70
-15.47
-9.76
-5.11
-1.22
2.19
4.63
4.58
0.60
-7.80
-19.42
-31.55
-41.36
-47.17
-49.32
-49.98
-51.86
-56.66
-64.06
-71.78
-76.45
-75.25
-67.20
-53.46
-36.94
-20.77
-7.27
2.75
9.82
14.90
18.65
21.09
21.88
21.00
19.11
17.52
17.59
20.07
24.60
29.80
34.09
36.25
36.07
34.27
31.86
29.59
27.49
24.93
21.18
15.94
9.58
2.96
-3.02
-7.88
-11.68
-14.65
-16.99
-18.34
-18.03
-15.51
-10.66
-4.16
2.76
8.86
13.40
16.45
18.70
20.94
23.52
26.16
28.15
28.64
27.42
24.92
22.16
20.33
20.05
21.21
22.90
23.87
23.14
20.49
16.37
11.69
7.35
3.84
1.11
-1.17
-3.46
-5.96
-8.67
-11.60
-14.75
-18.26
-22.21
-26.34
-29.90
-31.83
-31.10
-27.24
-20.64
-12.42
-4.02
3.24
8.76
12.57
15.25
17.54
19.90
22.40
24.74
26.52
27.50
27.80
27.82
27.97
28.49
29.20
29.63
29.37
28.10
26.05
23.67
21.36
19.30
17.15
14.33
10.29
4.94
-1.21
-7.24
-12.17
-15.44
-17.02
-17.44
-17.59
-18.24
-19.93
-22.73
-26.23
-29.74
-32.45
-33.66
-32.91
-30.03
-25.20
-18.91
-11.90
-4.92
1.34
6.44
10.35
13.19
15.55
18.05
21.32
25.93
31.91
38.76
45.26
49.75
50.46
45.88
35.17
18.19
-4.35
-30.99
-59.69
-87.73
-112.28
-130.78
-141.51
-144.29
-140.41
-132.27
-122.60
-113.61
-106.08
-99.07
-89.91
-75.00
-51.25
-17.73
23.36
66.40
104.10
129.99
141.08
139.25
130.40
121.89
119.34
124.50
135.00
145.71
151.12
147.26
132.97
110.16
82.92
56.71
36.52
25.54
24.32
30.62
40.65
50.89
59.64
67.45
76.27
87.73
101.96
117.30
130.95
139.77
141.13
133.19
115.27
88.30
55.05
19.94
-12.31
-38.49
-58.32
-74.44
-90.43
-108.14
-125.79
-138.65
-141.80
-133.44
-116.72
-98.34
-85.49
-82.33
-88.35
-99.51
-111.00
-119.65
-124.77
-126.81
-125.61
-119.39
-105.52
-82.35
-50.90
-15.28
18.70
45.57
62.27
69.10
69.20
67.29
67.70
73.13
84.08
99.01
115.14
129.34
139.02
142.67
140.21
132.72
121.84
109.20
95.67
81.31
65.71
48.50
29.87
10.66
-7.97
-24.94
-39.57
-51.54
-60.77
-67.10
-70.32
-70.38
-67.51
-62.34
-55.60
-47.88
-39.55
-30.67
-21.48
-12.51
-4.68
1.02
3.88
3.72
0.98
-3.75
-9.88
-17.09
-25.12
-33.38
-40.81
-45.96
-47.37
-44.22
-36.64
-25.77
-13.38
-1.26
9.30
17.84
24.70
30.81
37.18
44.41
52.43
60.27
66.45
69.26
67.30
59.91
47.27
30.61
11.88
-6.55
-22.46
-34.50
-42.41
-47.12
-49.97
-52.04
-53.56
-53.77
-51.71
-46.95
-40.37
-34.34
-31.92
-35.72
-46.44
-61.91
-77.05
-85.02
-79.53
-57.36
-20.25
25.00
68.59
100.95
116.30
114.42
100.15
81.05
63.82
51.93
44.80
38.91
29.92
14.75
-7.27
-34.25
-62.22
-85.81
-99.44
-98.76
-82.59
-54.55
-23.30
-0.62
2.75
-18.04
-58.74
-106.60
-144.69
-158.13
-139.57
-91.54
-24.97
44.82
103.24
140.53
154.31
149.56
136.26
125.25
123.57
131.52
142.51
146.03
132.65
98.57
47.63
-9.97
-61.42
-95.52
-106.15
-93.46
-63.53
-26.33
7.14
27.74
30.57
15.79
-12.06
-46.00
-79.07
-105.93
-123.58
-131.09
-129.01
-118.92
-103.09
-84.44
-66.14
-51.08
-41.14
-36.69
-36.69
-39.10
-41.62
-42.59
-41.41
-38.68
-35.61
-33.43
-32.82
-33.49
-34.64
-35.11
-34.23
-31.97
-28.89
-26.01
-24.18
-23.83
-24.75
-26.16
-27.09
-26.80
-25.14
-22.54
-19.76
-17.57
-16.15
-15.18
-13.78
-11.07
-6.74
-1.17
4.53
9.13
11.88
12.98
13.41
14.48
17.10
21.31
26.20
30.48
32.87
32.97
31.12
28.21
25.21
22.59
20.26
17.74
14.60
10.82
6.88
3.54
1.32
0.31
-0.03
-0.75
-2.77
-6.73
-12.48
-19.17
-25.50
-30.11
-32.08
-31.20
-27.93
-23.22
-17.95
-12.76
-7.77
-2.87
2.06
6.92
11.11
13.97
14.92
13.86
11.26
7.92
4.61
1.83
-0.29
-1.92
-3.29
-4.47
-5.49
-6.27
-6.88
-7.69
-9.13
-11.60
-14.98
-18.57
-21.25
-21.70
-19.05
-13.26
-5.06
4.46
14.48
24.79
35.60
47.09
58.76
69.48
77.92
83.61
87.34
90.78
95.46
101.51
107.16
109.48
105.85
95.56
80.32
63.62
49.17
39.40
34.70
33.65
34.01
33.63
31.25
26.57
19.93
11.98
3.35
-5.48
-14.15
-22.26
-29.34
-34.93
-38.74
-40.81
-41.71
-42.29
-43.61
-46.24
-50.17
-54.59
-58.13
-59.48
-57.83
-53.17
-46.32
-38.39
-30.40
-22.88
-15.95
-9.51
-3.81
0.34
1.80
-0.41
-6.34
-14.70
-23.08
-28.73
-29.72
-25.69
-17.98
-9.00
-1.10
4.22
6.66
6.75
5.15
2.29
-1.97
-7.72
-14.82
-22.69
-30.56
-37.94
-44.77
-51.34
-57.83
-63.91
-68.60
-70.62
-69.03
-63.67
-55.28
-45.37
-35.49
-26.94
-20.44
-16.17
-14.03
-13.81
-15.37
-18.59
-23.20
-28.52
-33.16
-35.16
-32.32
-23.11
-7.47
12.71
33.94
52.38
65.11
71.12
71.27
67.34
61.04
53.27
44.23
34.06
23.44
13.67
6.20
2.03
1.26
3.08
6.31
9.82
13.04
16.01
19.12
22.80
27.17
31.88
36.18
39.31
40.85
40.89
40.00
38.79
37.51
35.81
32.81
27.59
19.81
9.99
-0.45
-9.77
-16.45
-19.81
-20.23
-18.95
-17.67
-17.85
-20.31
-25.06
-31.39
-38.35
-45.04
-50.92
-55.78
-59.63
-62.59
-64.85
-66.59
-68.05
-69.43
-70.75
-71.72
-71.66
-69.70
-65.09
-57.55
-47.41
-35.59
-23.20
-11.24
-0.31
9.39
17.87
25.19
31.39
36.51
40.73
44.34
47.72
51.11
54.55
57.93
60.95
63.43
65.31
66.66
67.57
68.12
68.19
67.60
66.16
63.72
60.31
56.13
51.53
46.92
42.61
38.73
35.20
31.78
28.12
23.88
18.87
13.12
6.96
1.09
-3.59
-6.14
-5.92
-2.81
2.65
9.40
16.19
22.02
26.32
29.12
30.86
32.04
33.06
34.00
34.72
35.05
34.94
34.53
34.08
33.81
33.74
33.68
33.30
32.33
30.70
28.55
26.16
23.73
21.34
18.91
16.29
13.43
10.44
7.54
4.89
2.48
0.06
-2.78
-6.35
-10.61
-15.12
-19.00
-21.29
-21.19
-18.41
-13.21
-6.35
1.19
8.48
14.80
19.75
23.19
25.16
25.76
25.19
23.68
21.56
19.24
17.11
15.50
14.50
13.92
13.36
12.33
10.49
7.78
4.49
1.12
-1.81
-4.00
-5.47
-6.49
-7.46
-8.72
-10.47
-12.76
-15.59
-18.83
-22.21
-25.29
-27.41
-27.92
-26.31
-22.53
-16.99
-10.56
-4.19
1.26
5.38
8.15
9.82
10.70
11.03
10.89
10.35
9.54
8.76
8.30
8.37
8.90
9.54
9.76
9.12
7.43
4.84
1.69
-1.60
-4.71
-7.50
-9.96
-12.20
-14.29
-16.26
-18.15
-19.99
-21.83
-23.69
-25.45
-26.80
-27.27
-26.36
-23.76
-19.48
-13.96
-7.89
-2.02
3.10
7.20
10.29
12.47
13.85
14.49
14.50
14.04
13.38
12.80
12.48
12.39
12.36
12.09
11.41
10.28
8.85
7.28
5.74
4.31
2.96
1.69
0.47
-0.73
-1.93
-3.23
-4.68
-6.41
-8.53
-11.16
-14.29
-17.72
-21.05
-23.64
-24.83
-24.19
-21.63
-17.54
-12.60
-7.59
-3.12
0.49
3.17
5.05
6.30
7.02
7.33
7.30
7.04
6.70
6.44
6.33
6.41
6.60
6.73
6.61
6.04
4.91
3.22
1.06
-1.36
-3.91
-6.43
-8.89
-11.33
-13.76
-16.25
-18.83
-21.53
-24.38
-27.31
-30.11
-32.37
-33.59
-33.32
-31.34
-27.75
-22.94
-17.44
-11.75
-6.26
-1.30
2.91
6.14
8.23
9.11
8.92
8.01
6.84
5.91
5.61
6.03
7.09
8.49
9.91
11.01
11.59
11.53
10.80
9.39
7.36
4.81
1.89
-1.23
-4.37
-7.38
-10.18
-12.78
-15.27
-17.75
-20.24
-22.69
-24.79
-26.05
-25.87
-23.74
-19.43
-13.10
-5.33
2.98
10.73
16.85
20.47
21.17
19.15
15.23
10.64
6.59
3.88
2.62
2.36
2.37
2.11
1.43
0.54
-0.05
0.17
1.52
3.90
6.66
8.56
8.11
4.25
-3.05
-12.47
-21.72
-28.49
-31.44
-30.79
-28.06
-25.10
-23.15
-22.30
-21.73
-20.46
-17.90
-14.18
-9.81
-5.30
-1.01
2.83
5.80
7.28
6.72
4.03
-0.03
-4.09
-6.58
-6.44
-3.52
1.27
6.43
10.33
11.71
9.94
5.07
-2.26
-11.00
-19.88
-27.78
-33.96
-38.20
-40.83
-42.43
-43.58
-44.51
-45.09
-44.86
-43.29
-40.01
-34.98
-28.57
-21.37
-14.15
-7.57
-2.18
1.69
3.89
4.48
3.70
2.01
0.03
-1.60
-2.34
-1.96
-0.58
1.31
3.06
4.20
4.57
4.46
4.45
5.11
6.57
8.38
9.55
8.98
5.89
0.32
-6.81
-13.88
-19.03
-20.74
-18.33
-12.32
-4.49
2.55
6.15
4.76
-1.28
-9.58
-16.53
-18.83
-14.97
-6.04
4.79
13.70
17.93
16.81
11.75
5.35
0.18
-2.03
-0.78
3.36
9.00
14.22
17.03
15.91
10.50
1.98
-7.23
-14.28
-17.14
-15.42
-10.44
-4.54
0.01
1.83
0.78
-2.37
-6.41
-10.18
-12.71
-13.19
-11.11
-6.41
0.27
7.52
13.50
16.50
15.65
11.31
5.07
-0.74
-3.90
-3.04
1.92
9.74
18.29
25.19
28.45
27.10
21.37
12.73
3.35
-4.53
-9.40
-10.83
-9.52
-6.84
-4.25
-2.81
-3.00
-4.84
-8.11
-12.49
-17.47
-22.27
-25.78
-26.87
-24.81
-19.59
-12.12
-3.88
3.57
9.11
12.34
13.53
13.36
12.57
11.70
11.11
10.95
11.26
11.94
12.80
13.49
13.65
12.96
11.24
8.51
5.04
1.28
-2.26
-5.17
-7.22
-8.49
-9.38
-10.41
-12.17
-14.90
-18.51
-22.44
-25.73
-27.50
-27.12
-24.53
-20.19
-14.87
-9.32
-4.11
0.37
3.87
6.10
6.83
6.00
3.89
1.19
-1.18
-2.46
-2.28
-0.86
1.08
2.73
3.56
3.55
3.06
2.68
2.75
3.18
3.57
3.25
1.85
-0.75
-4.29
-8.27
-12.30
-16.05
-19.35
-21.90
-23.30
-22.97
-20.42
-15.55
-8.79
-1.15
6.05
11.68
15.02
16.08
15.39
13.73
11.79
10.07
8.82
8.19
8.36
9.46
11.41
13.89
16.28
17.90
18.35
17.57
16.08
14.59
13.68
13.55
13.74
13.38
11.50
7.59
2.00
-4.08
-8.93
-10.97
-9.35
-4.21
3.24
11.45
18.89
24.68
28.69
31.30
32.97
33.86
33.77
32.32
29.44
25.70
22.23
20.33
20.85
23.74
28.03
32.12
34.68
35.02
33.28
30.18
26.37
22.07
17.02
10.92
3.77
-3.89
-11.17
-17.36
-22.25
-26.19
-29.85
-33.56
-37.12
-39.63
-39.96
-37.35
-31.81
-24.25
-16.16
-9.01
-3.71
-0.45
1.21
2.04
2.67
3.39
4.23
4.92
5.23
4.93
3.76
1.59
-1.68
-5.90
-10.60
-14.91
-17.79
-18.42
-16.46
-12.41
-7.39
-2.90
-0.39
-0.59
-3.54
-8.53
-14.36
-19.90
-24.27
-26.99
-27.90
-26.95
-24.13
-19.48
-13.29
-6.11
1.32
8.12
13.69
17.56
19.74
20.43
20.06
19.09
17.90
16.74
15.69
14.76
14.02
13.47
13.11
12.78
12.20
11.03
8.93
5.93
2.30
-1.42
-4.68
-7.23
-9.23
-11.17
-13.64
-17.03
-21.33
-26.06
-30.45
-33.57
-34.61
-33.11
-29.03
-22.82
-15.20
-7.12
0.55
7.12
12.14
15.42
17.01
17.26
16.71
16.10
16.14
17.24
19.41
22.19
24.77
26.47
26.89
26.23
25.09
24.13
23.71
23.66
23.40
22.29
19.99
16.65
12.80
9.08
5.92
3.38
1.22
-0.98
-3.54
-6.66
-10.37
-14.57
-19.03
-23.38
-27.01
-29.12
-28.90
-25.77
-19.70
-11.31
-1.80
7.46
15.23
20.87
24.32
26.03
26.68
26.82
26.68
26.25
25.45
24.31
23.12
22.27
22.06
22.54
23.43
24.16
24.18
23.03
20.65
17.29
13.40
9.46
5.73
2.12
-1.64
-5.86
-10.62
-15.71
-20.61
-24.76
-27.73
-29.26
-29.39
-28.14
-25.59
-21.77
-16.75
-10.76
-4.28
1.96
7.16
10.63
12.11
11.79
10.28
8.40
6.89
6.11
6.12
6.53
6.95
7.01
6.48
5.34
3.57
1.23
-1.61
-4.77
-7.90
-10.65
-12.74
-14.14
-15.12
-16.15
-17.81
-20.37
-23.75
-27.37
-30.27
-31.57
-30.61
-27.35
-22.36
-16.51
-10.70
-5.51
-1.13
2.64
6.02
9.04
11.53
13.07
13.49
12.89
11.74
10.67
10.14
10.21
10.55
10.71
10.34
9.39
8.16
7.01
6.14
5.47
4.58
3.08
0.72
-2.37
-5.78
-9.17
-12.39
-15.65
-19.30
-23.37
-27.38
-30.25
-30.83
-28.29
-22.66
-14.92
-6.52
1.06
7.02
11.34
14.61
17.54
20.47
23.22
25.23
26.02
25.60
24.58
23.96
24.61
26.88
30.38
34.07
36.90
38.17
37.80
36.28
34.25
32.13
29.96
27.46
24.34
20.58
16.45
12.30
8.36
4.54
0.40
-4.40
-9.89
-15.42
-19.86
-22.08
-21.37
-17.90
-12.58
-6.69
-1.38
2.79
5.84
8.11
9.83
10.97
11.26
10.40
8.47
5.99
3.74
2.55
2.78
4.18
6.00
7.25
7.16
5.52
2.71
-0.49
-3.32
-5.31
-6.53
-7.39
-8.51
-10.32
-13.02
-16.64
-21.05
-26.13
-31.59
-36.84
-40.92
-42.74
-41.41
-36.64
-29.04
-19.87
-10.69
-2.94
2.52
5.46
6.23
5.54
4.12
2.55
1.21
0.28
-0.13
0.05
0.82
2.00
3.21
3.91
3.54
1.80
-1.21
-4.89
-8.44
-11.24
-13.10
-14.45
-16.08
-18.75
-22.67
-27.31
-31.57
-34.13
-34.09
-31.28
-26.20
-19.84
-13.20
-6.98
-1.52
3.16
7.02
9.99
11.87
12.55
12.18
11.22
10.29
9.94
10.50
11.87
13.59
15.10
15.83
15.51
14.21
12.25
10.06
7.94
6.01
4.10
1.92
-0.77
-4.15
-8.20
-12.72
-17.44
-22.01
-26.07
-29.12
-30.67
-30.28
-27.75
-23.31
-17.65
-11.81
-6.75
-3.11
-0.98
0.05
0.57
1.02
1.62
2.28
2.90
3.49
4.22
5.41
7.20
9.42
11.47
12.56
12.03
9.77
6.33
2.75
0.09
-1.02
-0.71
0.31
0.89
0.29
-1.69
-4.54
-7.19
-8.68
-8.44
-6.52
-3.38
0.55
5.03
10.17
16.06
22.52
28.86
33.93
36.77
36.84
34.46
30.64
26.60
23.30
20.98
19.19
17.17
14.48
11.38
8.79
7.85
9.20
12.42
16.17
18.44
17.85
14.05
7.95
1.31
-4.33
-8.23
-10.61
-12.12
-13.10
-13.25
-11.75
-7.95
-1.80
6.03
14.16
21.54
27.39
31.54
33.94
34.08
31.01
23.58
11.27
-4.97
-22.49
-37.57
-46.64
-47.66
-40.93
-28.97
-15.27
-3.19
5.50
10.50
12.55
12.53
10.68
6.75
0.44
-7.91
-17.27
-26.31
-34.07
-40.43
-45.76
-50.29
-53.63
-54.28
-50.39
-40.46
-24.16
-2.79
21.14
44.57
64.65
79.25
87.10
87.73
81.39
69.17
52.87
34.82
17.58
3.05
-7.65
-14.50
-18.26
-19.82
-19.92
-19.04
-17.65
-16.48
-16.63
-19.12
-24.22
-31.05
-37.52
-41.12
-40.01
-33.79
-23.79
-12.33
-1.76
6.52
12.30
16.22
18.92
20.52
20.45
18.02
13.10
6.64
0.52
-3.21
-3.28
-0.05
4.65
8.26
8.63
4.94
-1.99
-10.29
-17.88
-23.37
-26.41
-27.54
-27.68
-27.58
-27.50
-27.23
-26.33
-24.46
-21.50
-17.66
-13.33
-8.92
-4.74
-1.00
2.08
4.30
5.45
5.49
4.77
4.22
5.26
9.47
18.11
31.51
48.83
68.12
86.72
101.82
110.94
112.36
105.19
89.40
65.79
35.91
2.05
-32.91
-65.66
-92.94
-112.13
-121.91
-122.68
-116.36
-105.66
-92.93
-79.25
-64.29
-47.07
-27.23
-5.86
14.56
31.26
42.73
49.53
54.02
59.19
66.96
77.38
88.70
98.27
103.55
102.68
94.76
79.75
58.59
33.35
7.09
-16.67
-34.93
-46.25
-51.20
-51.99
-51.37
-51.46
-52.97
-55.34
-57.27
-57.67
-56.04
-52.36
-46.77
-39.18
-29.26
-16.83
-2.17
13.75
29.46
43.44
54.50
61.92
65.38
64.75
60.13
51.71
39.89
25.16
7.98
-11.15
-31.58
-52.40
-72.36
-90.18
-104.96
-116.55
-125.52
-132.72
-138.70
-143.30
-145.82
-145.34
-141.28
-133.41
-121.80
-106.64
-88.45
-68.40
-48.36
-30.62
-16.94
-7.69
-1.72
3.14
8.80
15.91
23.58
30.08
33.95
34.91
33.97
32.86
33.19
35.71
40.19
45.78
51.38
55.97
58.88
59.75
58.65
55.95
52.31
48.33
44.41
40.50
36.26
31.28
25.36
18.58
11.36
4.30
-1.93
-6.58
-9.00
-8.51
-4.75
2.05
10.98
20.33
28.13
32.73
33.44
30.76
26.26
21.91
19.29
19.06
20.77
23.08
24.58
24.23
21.81
17.80
12.95
7.94
3.20
-1.03
-4.48
-6.68
-7.05
-5.19
-1.11
4.68
11.32
17.97
24.00
29.24
33.76
37.56
40.55
42.36
42.68
41.42
38.96
36.02
33.38
31.58
30.55
29.76
28.38
25.70
21.52
16.14
10.28
4.74
0.02
-3.80
-6.94
-9.70
-12.29
-14.65
-16.60
-18.01
-18.96
-19.70
-20.59
-21.78
-23.23
-24.58
-25.35
-25.17
-23.90
-21.71
-18.97
-16.17
-13.71
-11.83
-10.59
-9.82
-9.13
-8.00
-5.89
-2.46
2.27
7.87
13.59
18.64
22.39
24.59
25.32
24.89
23.64
21.74
19.26
16.20
12.66
8.94
5.53
2.96
1.58
1.48
2.39
3.90
5.59
7.18
8.54
9.65
10.49
11.07
11.39
11.58
11.67
11.59
10.99
9.27
5.99
1.05
-4.96
-11.00
-15.96
-19.22
-20.96
-21.93
-22.95
-24.36
-25.86
-26.82
-26.68
-25.49
-23.85
-22.50
-22.09
-22.61
-23.60
-24.45
-24.67
-24.28
-23.69
-23.37
-23.47
-23.50
-22.54
-19.66
-14.48
-7.49
0.12
6.70
11.20
13.33
13.68
13.41
13.30
13.46
13.14
11.28
7.26
1.44
-4.80
-9.64
-11.50
-9.69
-4.78
2.06
9.34
16.17
22.35
28.21
34.20
40.32
45.93
50.17
52.44
52.92
52.51
52.50
53.68
55.91
58.17
58.80
56.77
51.84
44.76
36.87
29.23
22.31
15.90
9.63
3.38
-2.55
-7.56
-11.33
-14.06
-16.53
-19.90
-24.81
-31.15
-37.61
-42.23
-43.25
-39.97
-33.29
-25.50
-19.29
-16.51
-17.41
-20.61
-23.87
-25.34
-24.37
-21.59
-18.61
-16.64
-16.07
-16.17
-15.56
-13.15
-8.67
-2.85
3.07
8.03
11.65
14.22
16.26
18.16
19.90
20.98
20.99
19.72
17.56
15.33
13.87
13.72
14.72
16.07
16.64
15.58
12.69
8.67
4.92
2.92
3.60
6.86
11.37
15.23
16.55
14.22
8.21
-0.58
-10.69
-20.66
-29.29
-35.80
-39.81
-41.18
-40.11
-37.09
-32.97
-28.93
-26.14
-25.50
-27.20
-30.71
-35.06
-39.18
-42.30
-44.10
-44.62
-43.98
-42.18
-39.16
-34.89
-29.57
-23.66
-17.72
-12.29
-7.54
-3.42
0.29
3.73
6.91
9.74
12.30
14.87
17.84
21.38
25.22
28.55
30.46
30.40
28.58
26.06
24.26
24.36
26.74
30.83
35.27
38.20
37.58
31.71
19.75
2.37
-17.95
-37.33
-51.67
-58.14
-56.23
-48.10
-37.45
-28.04
-22.15
-20.08
-20.54
-21.70
-22.27
-21.86
-20.84
-19.68
-18.50
-17.00
-14.66
-11.25
-7.15
-3.22
-0.50
0.29
-0.93
-3.61
-6.82
-9.73
-11.89
-13.34
-14.43
-15.61
-17.19
-19.17
-21.30
-23.09
-23.95
-23.41
-21.21
-17.45
-12.51
-6.99
-1.51
3.45
7.61
10.91
13.42
15.21
16.37
16.98
17.27
17.60
18.37
19.89
22.21
25.07
27.97
30.32
31.66
31.78
30.78
28.98
26.90
25.06
23.84
23.34
23.26
22.99
21.73
18.79
13.89
7.36
0.01
-7.03
-12.64
-16.08
-17.01
-15.60
-12.37
-8.08
-3.55
0.46
3.52
5.52
6.67
7.31
7.72
7.94
7.76
6.95
5.44
3.51
1.72
0.66
0.71
1.70
3.06
4.02
3.98
2.78
0.74
-1.55
-3.44
-4.61
-5.14
-5.54
-6.52
-8.66
-12.10
-16.44
-20.79
-24.10
-25.54
-24.84
-22.37
-18.95
-15.57
-12.93
-11.28
-10.45
-10.09
-9.92
-9.91
-10.31
-11.46
-13.60
-16.67
-20.27
-23.83
-26.81
-28.89
-30.10
-30.77
-31.43
-32.66
-35.00
-38.73
-43.75
-49.41
-54.41
-56.98
-55.32
-48.08
-35.05
-17.27
3.12
23.44
41.24
54.85
63.59
67.61
67.55
64.26
58.57
51.34
43.46
35.79
29.11
23.87
20.19
17.84
16.43
15.50
14.80
14.21
13.73
13.50
13.62
14.09
14.73
15.17
14.94
13.62
11.11
7.65
3.89
0.55
-1.89
-3.30
-3.98
-4.48
-5.31
-6.74
-8.79
-11.30
-13.99
-16.63
-19.01
-20.90
-22.17
-22.70
-22.43
-21.38
-19.50
-16.66
-12.71
-7.56
-1.38
5.39
12.09
18.06
22.83
26.19
28.24
29.19
29.34
28.96
28.28
27.54
26.80
26.11
25.40
24.61
23.72
22.84
22.08
21.49
20.94
20.18
18.90
16.94
14.32
11.31
8.26
5.50
3.18
1.25
-0.50
-2.26
-4.14
-6.04
-7.66
-8.62
-8.58
-7.42
-5.28
-2.47
0.61
3.60
6.19
8.13
9.23
9.39
8.65
7.30
5.82
4.75
4.50
5.12
6.22
7.08
6.96
5.31
2.13
-2.13
-6.71
-10.79
-13.80
-15.53
-16.16
-16.02
-15.53
-15.03
-14.81
-15.09
-15.97
-17.34
-18.83
-19.82
-19.61
-17.74
-14.14
-9.22
-3.65
1.87
6.84
10.98
14.24
16.60
18.02
18.49
18.00
16.67
14.67
12.24
9.68
7.27
5.27
3.84
2.99
2.53
2.10
1.38
0.10
-1.74
-3.99
-6.41
-8.74
-10.85
-12.74
-14.53
-16.39
-18.49
-20.80
-23.18
-25.28
-26.69
-27.00
-26.04
-23.85
-20.72
-17.08
-13.33
-9.83
-6.76
-4.15
-1.99
-0.17
1.42
2.88
4.25
5.59
6.90
8.21
9.51
10.70
11.69
12.30
12.37
11.80
10.57
8.71
6.36
3.67
0.81
-2.01
-4.62
-6.95
-8.96
-10.78
-12.57
-14.45
-16.43
-18.30
-19.65
-20.04
-19.09
-16.73
-13.22
-9.06
-4.87
-1.09
2.07
4.70
6.94
8.84
10.30
11.12
11.19
10.69
9.99
9.59
9.76
10.47
11.37
12.06
12.28
12.06
11.71
11.52
11.65
12.00
12.28
12.24
11.70
10.66
9.29
7.74
6.16
4.65
3.29
2.11
1.10
0.26
-0.46
-1.05
-1.48
-1.61
-1.33
-0.53
0.83
2.72
4.97
7.32
9.37
10.79
11.30
10.86
9.71
8.29
7.07
6.43
6.56
7.34
8.43
9.35
9.64
8.99
7.35
4.96
2.26
-0.33
-2.49
-4.12
-5.32
-6.29
-7.28
-8.47
-9.99
-11.90
-14.13
-16.49
-18.76
-20.59
-21.77
-22.17
-21.83
-20.92
-19.57
-17.89
-15.98
-13.91
-11.90
-10.28
-9.43
-9.62
-10.90
-12.93
-15.10
-16.73
-17.38
-17.05
-16.25
-15.74
-16.24
-17.97
-20.50
-22.83
-23.77
-22.49
-18.98
-14.27
-10.12
-8.34
-9.98
-14.71
-20.90
-26.28
-29.00
-28.50
-25.80
-22.77
-21.11
-21.32
-22.29
-21.63
-16.34
-3.63
18.40
50.12
89.67
132.67
172.67
202.31
215.50
209.37
185.66
150.37
111.84
77.92
53.45
39.21
32.52
29.26
26.11
22.01
18.39
17.99
23.02
33.71
47.90
61.93
72.17
76.53
75.02
69.24
61.39
53.18
45.45
38.28
31.57
25.52
20.72
17.76
16.84
17.41
18.35
18.37
16.49
12.44
6.76
0.40
-5.64
-10.84
-15.37
-19.86
-25.10
-31.53
-38.98
-46.63
-53.40
-58.36
-61.13
-61.97
-61.69
-61.24
-61.42
-62.68
-64.99
-67.99
-71.08
-73.57
-74.83
-74.39
-72.05
-67.94
-62.55
-56.58
-50.82
-45.83
-41.94
-39.10
-37.10
-35.57
-34.22
-32.81
-31.21
-29.47
-27.68
-25.93
-24.17
-22.22
-19.89
-17.17
-14.46
-12.43
-11.79
-12.87
-15.41
-18.65
-21.69
-23.97
-25.56
-26.98
-28.98
-31.99
-35.90
-40.07
-43.51
-45.29
-44.81
-41.94
-37.06
-30.89
-24.28
-18.03
-12.68
-8.50
-5.55
-3.77
-3.06
-3.21
-3.92
-4.69
-4.99
-4.39
-2.85
-0.72
1.37
2.82
3.29
2.84
1.82
0.63
-0.54
-1.78
-3.43
-5.77
-8.88
-12.62
-16.69
-20.75
-24.52
-27.73
-30.01
-30.86
-29.79
-26.57
-21.38
-14.97
-8.35
-2.55
1.85
4.75
6.46
7.43
7.96
8.14
7.89
7.24
6.34
5.50
4.97
4.83
4.87
4.72
4.07
2.84
1.16
-0.68
-2.42
-3.96
-5.45
-7.23
-9.63
-12.86
-16.90
-21.40
-25.67
-28.86
-30.13
-28.90
-25.11
-19.31
-12.43
-5.61
0.30
4.90
8.23
10.57
12.16
13.04
13.14
12.45
11.24
10.01
9.36
9.62
10.66
11.95
12.74
12.48
11.05
8.76
6.17
3.76
1.74
0.07
-1.53
-3.33
-5.57
-8.38
-11.81
-15.74
-19.80
-23.35
-25.55
-25.69
-23.39
-18.85
-12.75
-6.06
0.34
5.78
9.94
12.75
14.32
14.78
14.36
13.35
12.11
11.01
10.29
10.06
10.27
10.79
11.48
12.16
12.62
12.71
12.36
11.70
11.04
10.68
10.62
10.45
9.43
6.78
2.12
-4.31
-11.64
-18.66
-24.17
-27.26
-27.42
-24.58
-19.00
-11.44
-2.98
5.10
11.63
15.89
17.80
17.86
16.82
15.49
14.45
14.03
14.37
15.41
16.92
18.61
20.08
21.01
21.18
20.53
19.06
16.96
14.43
11.70
8.96
6.31
3.64
0.70
-2.82
-7.12
-12.21
-17.86
-23.60
-28.82
-32.84
-35.00
-34.81
-32.13
-27.35
-21.30
-15.05
-9.51
-5.12
-1.80
0.89
3.34
5.69
7.90
9.82
11.52
13.25
15.32
17.85
20.62
23.03
24.41
24.26
22.52
19.55
15.98
12.42
9.24
6.40
3.57
0.33
-3.59
-8.24
-13.32
-18.33
-22.54
-25.19
-25.57
-23.31
-18.45
-11.67
-4.02
3.30
9.38
13.75
16.47
17.87
18.32
18.11
17.44
16.55
15.82
15.72
16.58
18.38
20.69
22.65
23.41
22.35
19.39
14.97
9.90
5.04
1.01
-2.04
-4.39
-6.64
-9.38
-13.05
-17.66
-22.83
-27.76
-31.52
-33.26
-32.57
-29.66
-25.31
-20.55
-16.14
-12.22
-8.26
-3.37
3.07
10.89
19.05
25.92
30.01
30.63
28.14
23.78
19.06
15.05
12.17
10.16
8.53
6.94
5.44
4.28
3.72
3.67
3.66
2.97
0.96
-2.67
-7.78
-13.88
-20.26
-26.18
-30.92
-33.82
-34.31
-31.97
-26.75
-19.03
-9.67
0.08
8.99
15.99
20.57
22.88
23.56
23.52
23.59
24.18
25.27
26.47
27.36
27.73
27.65
27.34
26.97
26.49
25.66
24.22
22.01
19.13
15.75
12.02
7.92
3.23
-2.19
-8.21
-14.34
-19.84
-24.00
-26.49
-27.35
-26.89
-25.41
-23.10
-20.01
-16.20
-11.91
-7.49
-3.40
0.10
3.03
5.63
8.23
11.03
13.93
16.57
18.43
19.09
18.34
16.49
14.23
12.53
12.25
13.69
16.48
19.60
21.82
22.28
20.74
17.71
14.09
10.74
8.08
6.01
4.09
1.76
-1.39
-5.53
-10.68
-16.57
-22.70
-28.26
-32.26
-33.71
-32.03
-27.17
-19.76
-10.89
-1.80
6.45
13.09
17.84
20.63
21.74
21.53
20.49
19.13
17.91
17.18
17.17
17.88
19.16
20.66
21.92
22.54
22.30
21.21
19.40
17.05
14.26
11.01
7.29
3.10
-1.44
-6.16
-10.88
-15.51
-19.97
-24.04
-27.37
-29.42
-29.63
-27.67
-23.49
-17.52
-10.40
-2.89
4.28
10.47
15.13
17.83
18.34
16.79
13.72
9.98
6.50
4.04
2.96
3.21
4.36
5.83
7.01
7.42
6.76
4.91
1.93
-1.96
-6.43
-11.06
-15.52
-19.64
-23.42
-26.90
-30.06
-32.65
-34.11
-33.74
-30.95
-25.57
-17.98
-9.16
-0.37
7.15
12.56
15.51
16.18
15.10
13.04
10.80
9.00
8.03
7.92
8.41
8.99
9.14
8.51
7.01
4.85
2.37
-0.09
-2.32
-4.28
-6.07
-7.96
-10.32
-13.48
-17.72
-22.96
-28.74
-34.07
-37.73
-38.56
-35.94
-30.00
-21.67
-12.38
-3.50
3.99
9.69
13.73
16.45
18.16
19.05
19.20
18.77
18.07
17.56
17.65
18.43
19.57
20.39
20.14
18.42
15.35
11.57
7.95
5.04
2.89
0.98
-1.43
-4.98
-9.82
-15.59
-21.65
-27.26
-31.73
-34.51
-35.17
-33.38
-29.13
-22.82
-15.29
-7.62
-0.82
4.51
8.19
10.46
11.53
11.39
9.77
6.31
0.85
-6.31
-14.49
-22.71
-30.13
-36.23
-40.89
-44.28
-46.69
-48.40
-49.63
-50.77
-52.37
-55.24
-60.22
-67.84
-77.81
-88.76
-98.23
-103.21
-101.03
-90.29
-71.46
-46.85
-19.85
6.12
28.45
45.79
57.97
65.51
69.27
70.19
69.33
67.88
67.10
67.96
70.84
75.13
79.43
81.95
81.32
77.18
70.53
63.42
58.01
55.57
55.72
56.47
55.09
49.37
38.79
24.73
9.88
-2.96
-11.98
-16.74
-17.91
-16.47
-13.24
-8.73
-3.46
1.74
5.82
8.00
8.62
9.32
12.65
20.80
34.21
50.84
66.58
76.83
78.39
70.80
56.39
39.09
22.75
9.66
0.25
-6.32
-11.14
-14.77
-17.06
-17.70
-16.68
-14.59
-12.44
-11.09
-11.02
-12.13
-14.17
-16.93
-20.44
-24.83
-30.01
-35.56
-40.70
-44.62
-46.75
-46.90
-45.13
-41.44
-35.64
-27.42
-16.80
-4.58
7.59
17.51
23.33
24.18
20.41
13.18
3.86
-6.41
-16.66
-25.71
-31.96
-33.77
-30.21
-21.83
-10.73
0.18
8.51
13.66
16.96
20.82
27.34
36.96
48.31
58.95
66.79
71.39
74.10
77.34
83.23
92.37
103.59
114.62
123.31
128.54
130.24
128.89
124.67
117.30
106.38
92.24
76.55
62.11
51.84
47.32
47.82
50.46
51.45
47.85
38.85
25.91
11.84
-0.72
-10.49
-17.91
-24.39
-31.33
-39.14
-47.12
-53.91
-58.24
-59.34
-57.08
-51.58
-43.04
-31.74
-18.36
-4.20
9.03
19.59
26.45
29.65
30.18
29.38
28.20
26.81
24.72
21.34
16.53
10.75
4.78
-0.84
-6.14
-11.64
-17.92
-25.10
-32.81
-40.37
-47.23
-53.19
-58.32
-62.69
-66.08
-68.04
-68.20
-66.55
-63.67
-60.39
-57.46
-55.17
-53.31
-51.27
-48.36
-43.85
-37.03
-27.24
-14.13
1.98
19.67
36.48
49.66
57.09
58.24
54.40
48.15
42.21
38.35
36.87
36.71
36.19
33.95
29.45
23.08
15.80
8.60
2.14
-3.42
-8.25
-12.62
-16.71
-20.61
-24.42
-28.23
-32.19
-36.28
-40.16
-43.11
-44.22
-42.82
-38.78
-32.68
-25.64
-18.93
-13.50
-9.72
-7.38
-5.91
-4.75
-3.65
-2.68
-2.18
-2.42
-3.48
-5.07
-6.72
-7.99
-8.74
-9.19
-9.71
-10.70
-12.31
-14.43
-16.70
-18.75
-20.30
-21.27
-21.82
-22.32
-23.22
-24.87
-27.21
-29.66
-31.24
-30.96
-28.28
-23.41
-17.26
-11.06
-5.79
-1.81
1.15
3.75
6.46
9.35
12.06
14.07
15.13
15.44
15.54
15.98
16.96
18.15
18.78
18.08
15.68
11.95
7.91
4.74
3.30
3.68
5.11
6.34
6.15
3.85
-0.52
-6.32
-12.52
-18.05
-22.06
-24.00
-23.68
-21.37
-17.68
-13.44
-9.43
-6.11
-3.56
-1.55
0.16
1.58
2.45
2.45
1.45
-0.19
-1.77
-2.51
-2.03
-0.61
0.83
1.14
-0.52
-4.22
-9.14
-13.91
-17.27
-18.64
-18.39
-17.65
-17.83
-20.01
-24.52
-30.90
-37.97
-43.98
-46.86
-44.64
-36.08
-21.57
-3.52
13.95
26.30
30.33
25.58
14.58
1.75
-8.47
-13.40
-12.84
-8.53
-2.81
2.77
7.92
13.33
19.71
27.00
34.06
39.09
40.43
37.37
30.62
22.08
14.05
8.36
5.63
5.22
5.65
5.40
3.61
0.20
-4.25
-9.06
-13.73
-18.10
-22.21
-26.05
-29.51
-32.31
-34.02
-34.17
-32.16
-27.51
-20.20
-11.20
-2.86
1.44
-1.81
-14.77
-36.90
-64.45
-90.96
-109.02
-112.48
-98.57
-68.88
-28.87
13.94
52.29
81.17
98.69
105.65
104.38
97.42
86.73
73.70
59.56
45.84
34.50
27.66
27.02
33.27
45.60
61.73
78.27
91.70
99.37
100.19
94.67
84.30
70.70
55.04
38.16
21.05
5.26
-7.29
-15.04
-17.70
-16.66
-14.49
-13.89
-16.51
-22.37
-29.97
-37.16
-41.85
-42.80
-39.78
-33.62
-25.96
-18.93
-14.66
-14.69
-19.44
-27.96
-38.19
-47.65
-54.16
-56.59
-55.07
-50.59
-44.48
-37.78
-31.11
-24.76
-19.06
-14.47
-11.52
-10.42
-10.74
-11.37
-10.98
-8.65
-4.29
1.19
6.32
9.63
10.20
7.89
3.30
-2.55
-8.45
-13.37
-16.63
-18.07
-18.22
-18.13
-18.95
-21.52
-25.80
-30.68
-34.30
-34.70
-30.59
-21.91
-9.97
2.83
13.71
20.25
20.96
15.71
5.71
-6.71
-18.60
-27.12
-30.34
-27.87
-20.97
-12.18
-4.26
0.74
2.25
1.16
-0.85
-2.24
-2.25
-1.03
0.83
2.69
4.26
5.44
6.01
5.60
3.79
0.56
-3.41
-6.75
-7.92
-5.89
-0.71
6.26
12.83
16.70
16.26
11.21
2.68
-7.08
-15.42
-20.00
-19.49
-13.81
-4.02
8.08
20.45
31.31
39.51
44.62
46.89
46.98
45.53
42.73
38.34
31.69
22.31
10.26
-3.68
-18.17
-31.87
-43.73
-53.25
-60.22
-64.53
-65.95
-64.23
-59.21
-51.07
-40.26
-27.53
-13.70
0.37
13.61
24.76
32.47
35.62
33.77
27.38
17.84
7.09
-2.96
-10.87
-15.96
-18.25
-18.28
-16.74
-14.32
-11.56
-8.88
-6.61
-4.99
-4.19
-4.21
-4.82
-5.63
-6.18
-6.18
-5.50
-4.24
-2.62
-0.82
1.02
2.75
4.14
4.86
4.59
3.19
0.80
-2.11
-4.96
-7.20
-8.52
-8.84
-8.27
-7.08
-5.49
-3.81
-2.33
-1.31
-0.93
-1.27
-2.29
-3.86
-5.84
-8.11
-10.56
-13.13
-15.69
-17.98
-19.68
-20.37
-19.81
-17.94
-15.00
-11.40
-7.52
-3.63
0.28
4.31
8.58
12.89
16.68
18.96
18.63
14.92
7.85
-1.48
-11.01
-18.27
-21.18
-18.84
-11.88
-2.17
7.76
15.58
19.74
19.72
15.84
8.90
-0.14
-10.40
-21.09
-31.33
-40.21
-46.63
-49.72
-48.97
-44.71
-38.10
-30.91
-25.00
-21.58
-20.76
-21.45
-21.88
-20.31
-15.76
-8.32
1.14
11.45
21.67
31.35
40.34
48.43
55.24
60.21
62.95
63.61
62.91
61.93
61.58
62.17
63.31
64.09
63.62
61.45
57.78
53.32
48.92
45.18
42.33
40.34
39.05
38.34
38.06
37.88
37.19
35.32
31.84
26.85
20.89
14.63
8.44
2.23
-4.29
-11.01
-17.07
-20.89
-20.97
-16.65
-8.66
1.01
9.97
16.33
19.39
19.61
18.10
15.90
13.50
10.88
7.73
3.78
-1.13
-7.12
-14.33
-22.85
-32.50
-42.66
-52.25
-60.10
-65.28
-67.48
-66.97
-64.38
-60.42
-55.57
-50.07
-44.02
-37.55
-30.87
-24.30
-18.19
-12.82
-8.34
-4.71
-1.77
0.76
3.14
5.38
7.17
7.97
7.22
4.58
0.18
-5.39
-11.35
-17.02
-22.06
-26.53
-30.79
-35.16
-39.70
-43.91
-46.89
-47.58
-45.18
-39.57
-31.46
-22.18
-13.20
-5.63
0.08
4.14
7.13
9.58
11.74
13.49
14.48
14.33
12.87
10.28
7.07
4.07
2.15
1.97
3.76
7.26
11.81
16.57
20.74
23.72
24.98
24.10
20.77
15.12
7.87
0.26
-6.30
-10.90
-13.43
-14.55
-15.16
-15.60
-15.36
-13.24
-8.08
0.43
11.42
23.10
33.53
41.38
46.40
49.24
50.92
52.35
54.00
56.03
58.34
60.81
63.28
65.49
66.99
67.28
65.97
62.94
58.41
52.90
47.01
41.21
35.73
30.55
25.42
20.06
14.12
7.41
-0.14
-8.31
-16.71
-24.71
-31.63
-36.80
-39.67
-40.00
-37.88
-33.79
-28.49
-22.85
-17.70
-13.56
-10.64
-8.83
-7.83
-7.25
-6.83
-6.40
-5.82
-5.00
-3.84
-2.36
-0.69
0.92
2.17
2.88
3.06
2.90
2.57
2.15
1.49
0.30
-1.62
-4.21
-7.08
-9.65
-11.33
-11.88
-11.45
-10.69
-10.40
-11.21
-13.26
-16.03
-18.49
-19.53
-18.40
-15.04
-10.06
-4.50
0.64
4.75
7.76
9.96
11.76
13.41
14.83
15.72
15.74
14.71
12.70
10.05
7.21
4.62
2.47
0.68
-1.02
-2.95
-5.20
-7.43
-8.85
-8.56
-6.04
-1.52
3.73
7.73
8.64
5.44
-1.42
-10.24
-18.61
-24.37
-26.25
-24.12
-18.76
-11.39
-3.28
4.42
10.78
15.13
17.14
16.86
14.74
11.42
7.56
3.70
0.27
-2.34
-3.73
-3.60
-1.95
0.82
4.00
6.77
8.52
9.01
8.37
6.86
4.73
2.13
-0.85
-4.07
-7.31
-10.26
-12.69
-14.49
-15.71
-16.51
-17.01
-17.28
-17.24
-16.76
-15.68
-13.89
-11.38
-8.21
-4.59
-0.77
2.94
6.26
8.93
10.79
11.78
11.98
11.58
10.83
9.90
8.85
7.61
6.08
4.20
2.08
-0.04
-1.86
-3.19
-4.00
-4.49
-5.01
-5.93
-7.50
-9.82
-12.84
-16.44
-20.40
-24.37
-27.83
-30.10
-30.53
-28.72
-24.80
-19.44
-13.70
-8.59
-4.70
-2.01
0.00
1.98
4.35
7.00
9.46
11.17
11.83
11.61
11.10
11.02
11.81
13.32
14.73
14.94
13.02
8.67
2.57
-3.79
-8.70
-10.84
-9.95
-6.95
-3.74
-2.50
-4.97
-11.78
-22.12
-33.82
-43.65
-47.88
-43.21
-27.92
-3.01
27.20
55.71
74.71
78.41
65.46
39.78
9.22
-17.47
-33.89
-37.96
-31.84
-20.06
-7.18
3.95
12.41
18.34
21.98
22.96
20.64
14.74
6.07
-3.62
-12.10
-17.65
-19.75
-19.15
-17.48
-16.32
-16.51
-17.77
-19.06
-19.09
-17.04
-12.85
-7.12
-0.79
5.29
10.57
14.73
17.63
19.09
18.98
17.38
14.72
11.79
9.46
8.39
8.75
10.11
11.66
12.57
12.26
10.62
7.91
4.63
1.28
-1.81
-4.50
-6.74
-8.53
-9.86
-10.77
-11.42
-12.09
-13.06
-14.43
-15.98
-17.15
-17.27
-15.78
-12.59
-8.02
-2.81
2.22
6.38
9.23
10.64
10.77
9.97
8.76
7.58
6.73
6.29
6.08
5.83
5.33
4.44
3.21
1.72
0.07
-1.63
-3.21
-4.52
-5.50
-6.24
-7.01
-8.14
-9.83
-12.08
-14.61
-17.00
-18.84
-19.77
-19.57
-18.15
-15.60
-12.21
-8.46
-4.89
-1.97
0.10
1.45
2.43
3.36
4.40
5.46
6.36
7.00
7.44
7.95
8.79
9.95
11.14
11.80
11.44
9.86
7.32
4.44
1.87
0.03
-1.12
-1.96
-2.97
-4.57
-6.83
-9.66
-12.79
-15.97
-18.85
-21.02
-21.98
-21.25
-18.65
-14.32
-8.85
-3.05
2.29
6.64
9.83
11.98
13.36
14.18
14.57
14.54
14.13
13.52
13.05
13.09
13.86
15.24
16.79
17.94
18.18
17.38
15.76
13.75
11.81
10.10
8.53
6.83
4.76
2.26
-0.57
-3.60
-6.76
-9.95
-13.01
-15.55
-16.97
-16.72
-14.51
-10.63
-5.88
-1.21
2.61
5.36
7.31
8.96
10.72
12.62
14.38
15.66
16.27
16.37
16.21
16.12
16.15
16.23
16.16
15.90
15.58
15.45
15.66
16.25
17.00
17.61
17.75
17.24
16.02
14.17
11.88
9.36
6.82
4.43
2.22
0.17
-1.76
-3.56
-5.06
-6.06
-6.26
-5.48
-3.68
-0.95
2.41
6.08
9.66
12.81
15.27
16.92
17.74
17.79
17.10
15.74
13.76
11.26
8.47
5.69
3.19
1.16
-0.40
-1.60
-2.56
-3.38
-4.12
-4.80
-5.49
-6.26
-7.15
-8.14
-9.16
-10.15
-11.10
-12.03
-12.97
-13.78
-14.26
-14.15
-13.29
-11.70
-9.59
-7.23
-4.86
-2.64
-0.66
0.90
1.84
1.95
1.20
-0.25
-2.06
-3.80
-5.15
-5.94
-6.17
-5.97
-5.52
-4.98
-4.52
-4.29
-4.45
-5.09
-6.20
-7.66
-9.13
-10.29
-10.90
-11.01
-10.94
-11.16
-12.06
-13.60
-15.31
-16.46
-16.34
-14.61
-11.42
-7.27
-2.80
1.40
4.88
7.35
8.65
8.77
7.98
6.72
5.52
4.75
4.45
4.38
4.09
3.16
1.40
-1.13
-4.10
-7.02
-9.39
-10.81
-11.25
-11.06
-10.94
-11.58
-13.35
-16.04
-18.97
-21.36
-22.75
-23.29
-23.64
-24.57
-26.59
-29.72
-33.56
-37.22
-39.45
-38.56
-32.58
-19.82
0.35
26.78
56.44
85.14
108.79
124.69
132.24
132.73
128.52
121.90
114.28
105.95
96.41
84.87
70.86
54.53
36.74
18.88
2.52
-10.95
-20.69
-26.64
-29.48
-30.46
-30.93
-32.00
-34.21
-37.44
-41.23
-45.07
-48.74
-52.39
-56.27
-60.43
-64.57
-68.12
-70.57
-71.84
-72.40
-73.11
-74.79
-77.83
-81.91
-86.02
-88.77
-88.82
-85.33
-78.18
-68.00
-56.10
-44.20
-34.20
-27.79
-26.09
-29.12
-35.69
-43.55
-50.09
-53.36
-52.72
-48.87
-43.22
-36.83
-29.89
-21.72
-11.72
-0.20
11.32
20.58
25.81
26.62
24.24
20.83
18.38
17.81
18.81
20.25
21.07
20.80
19.72
18.57
18.01
18.33
19.23
20.07
20.09
18.82
16.30
13.08
10.06
8.09
7.64
8.57
10.23
11.70
12.19
11.46
9.81
8.05
7.11
7.66
9.84
13.24
17.01
20.32
22.68
24.05
24.88
25.74
27.03
28.72
30.43
31.65
32.02
31.53
30.52
29.50
28.82
28.50
28.23
27.54
26.10
23.89
21.22
18.56
16.25
14.36
12.59
10.51
7.81
4.40
0.52
-3.56
-7.57
-11.38
-14.90
-17.90
-19.95
-20.54
-19.30
-16.24
-11.80
-6.71
-1.75
2.49
5.76
7.99
9.23
9.57
9.09
7.95
6.43
4.91
3.75
3.14
3.03
3.25
3.51
3.62
3.42
2.90
2.03
0.83
-0.61
-2.16
-3.63
-4.88
-5.85
-6.68
-7.60
-8.92
-10.80
-13.17
-15.74
-17.95
-19.28
-19.37
-18.14
-15.80
-12.77
-9.53
-6.43
-3.64
-1.24
0.78
2.47
3.87
5.08
6.23
7.47
8.89
10.43
11.95
13.26
14.22
14.80
15.19
15.67
16.52
17.85
19.54
21.25
22.47
22.80
22.02
20.21
17.66
14.76
11.80
8.90
6.00
2.95
-0.29
-3.62
-6.68
-9.01
-10.17
-9.84
-8.00
-4.80
-0.60
4.20
9.19
14.01
18.28
21.65
23.84
24.78
24.63
23.91
23.32
23.52
24.93
27.36
30.14
32.33
33.20
32.72
31.68
31.46
33.37
38.08
45.18
53.17
60.04
63.91
63.66
59.40
52.40
44.73
38.75
36.40
38.61
44.92
53.32
60.47
62.47
56.00
39.56
14.34
-15.79
-45.22
-68.43
-81.74
-84.37
-78.17
-66.44
-52.31
-37.66
-23.10
-8.76
4.93
16.82
25.67
30.94
33.46
35.22
38.43
44.31
52.48
61.17
68.20
72.09
72.70
70.99
68.33
65.73
63.46
61.26
58.73
55.78
52.70
49.94
47.76
46.07
44.46
42.34
39.34
35.35
30.55
25.37
20.24
15.45
11.05
6.79
2.21
-3.34
-10.57
-20.06
-32.13
-46.67
-63.06
-80.23
-96.72
-111.21
-122.84
-131.69
-138.75
-145.42
-152.74
-160.33
-166.09
-166.63
-158.57
-140.25
-112.81
-80.39
-48.74
-23.19
-6.64
1.22
3.31
3.42
4.38
7.09
10.72
13.66
14.78
13.95
11.79
8.98
5.54
0.59
-7.05
-18.28
-33.03
-50.29
-68.42
-85.92
-101.82
-115.79
-128.05
-138.77
-147.98
-155.37
-160.32
-162.17
-160.23
-153.92
-142.80
-126.69
-105.79
-80.86
-53.20
-24.62
2.75
26.73
45.48
57.86
63.85
64.57
62.09
58.75
56.44
55.96
56.97
58.34
58.93
58.11
56.06
53.50
51.15
49.48
48.31
47.22
45.73
43.56
40.72
37.26
33.24
28.56
23.18
17.33
11.68
7.23
4.94
5.31
7.93
11.41
13.86
13.61
9.92
3.31
-4.76
-12.52
-18.76
-23.18
-26.33
-28.95
-31.42
-33.46
-34.19
-32.70
-28.53
-21.89
-13.57
-4.57
4.21
12.05
18.44
22.86
24.90
24.34
21.46
17.12
12.65
9.42
8.31
9.33
11.58
13.57
13.86
11.57
6.84
0.62
-5.75
-11.13
-15.02
-17.68
-19.77
-21.95
-24.35
-26.51
-27.50
-26.36
-22.47
-15.91
-7.40
1.96
10.97
18.65
24.38
27.92
29.35
28.87
26.79
23.42
19.12
14.24
9.12
4.16
-0.19
-3.52
-5.44
-5.75
-4.54
-2.10
1.11
4.64
8.14
11.38
14.22
16.50
18.06
18.79
18.66
17.89
16.89
16.10
15.81
16.09
16.72
17.33
17.59
17.32
16.60
15.65
14.68
13.86
13.18
12.53
11.79
10.95
10.06
9.19
8.40
7.66
6.99
6.54
6.65
7.82
10.47
14.83
20.79
27.99
35.92
44.15
52.29
59.79
65.92
69.68
70.22
67.34
61.82
55.43
50.31
48.13
49.36
53.06
57.37
60.33
60.72
58.47
54.47
50.03
46.23
43.35
40.95
38.18
34.23
28.83
22.31
15.34
8.66
2.73
-2.23
-5.98
-8.11
-7.98
-5.19
0.05
6.56
12.60
16.52
17.61
16.46
14.56
13.55
14.24
16.32
18.63
19.91
19.53
17.76
15.44
13.48
12.28
11.73
11.37
10.84
10.06
9.12
7.99
6.29
3.39
-1.32
-7.97
-16.11
-24.85
-33.30
-41.01
-48.10
-54.99
-61.87
-68.34
-73.44
-75.98
-75.23
-71.31
-65.19
-58.29
-51.88
-46.54
-42.08
-37.73
-32.58
-26.17
-18.77
-11.26
-4.84
-0.48
1.49
1.51
0.47
-0.74
-1.75
-2.95
-5.26
-9.62
-16.42
-25.14
-34.47
-42.71
-48.34
-50.48
-49.10
-44.94
-39.31
-33.65
-29.21
-26.67
-26.05
-26.69
-27.64
-27.97
-27.13
-25.13
-22.38
-19.52
-17.10
-15.53
-15.04
-15.75
-17.68
-20.69
-24.36
-28.03
-30.89
-32.25
-31.73
-29.44
-25.90
-21.87
-18.02
-14.80
-12.27
-10.19
-8.26
-6.19
-3.97
-1.75
0.22
1.70
2.57
2.78
2.31
1.14
-0.70
-3.00
-5.31
-6.99
-7.38
-6.13
-3.27
0.66
4.91
8.82
12.05
14.66
16.93
19.07
21.02
22.42
22.88
22.22
20.66
18.81
17.39
16.91
17.42
18.54
19.61
20.10
19.81
18.87
17.65
16.47
15.39
14.22
12.71
10.69
8.22
5.49
2.69
-0.16
-3.22
-6.66
-10.37
-13.88
-16.41
-17.18
-15.86
-12.68
-8.41
-4.06
-0.42
2.18
3.88
5.06
6.16
7.37
8.73
10.16
11.57
12.96
14.36
15.77
17.13
18.24
18.86
18.74
17.79
16.10
13.96
11.72
9.71
8.06
6.70
5.28
3.46
0.95
-2.30
-6.02
-9.80
-13.04
-15.24
-15.99
-15.15
-12.85
-9.42
-5.31
-1.01
3.08
6.69
9.72
12.10
13.85
15.01
15.65
15.92
15.98
16.01
16.15
16.51
17.15
18.10
19.28
20.50
21.47
21.88
21.50
20.36
18.69
16.81
15.04
13.49
12.05
10.44
8.35
5.66
2.47
-0.78
-3.50
-5.04
-4.98
-3.24
-0.07
4.00
8.36
12.46
15.94
18.57
20.24
20.89
20.60
19.54
18.04
16.50
15.29
14.72
14.88
15.73
17.02
18.43
19.66
20.51
21.01
21.34
21.76
22.47
23.41
24.35
24.95
24.95
24.27
23.12
21.80
20.55
19.45
18.36
17.10
15.57
13.89
12.31
11.12
10.39
10.01
9.74
9.43
9.03
8.60
8.15
7.53
6.45
4.65
2.08
-0.94
-3.85
-6.12
-7.52
-8.24
-8.80
-9.71
-11.34
-13.66
-16.36
-19.07
-21.52
-23.70
-25.81
-28.08
-30.70
-33.65
-36.70
-39.50
-41.65
-42.85
-42.87
-41.64
-39.21
-35.70
-31.34
-26.42
-21.33
-16.48
-12.26
-9.00
-6.85
-5.79
-5.65
-6.15
-7.10
-8.33
-9.79
-11.46
-13.30
-15.22
-17.02
-18.56
-19.65
-20.19
-20.17
-19.64
-18.77
-17.77
-16.94
-16.56
-16.76
-17.50
-18.49
-19.35
-19.68
-19.31
-18.35
-17.13
-16.07
-15.40
-15.10
-14.93
-14.61
-14.00
-13.15
-12.14
-11.03
-9.64
-7.70
-4.99
-1.55
2.23
5.75
8.54
10.38
11.36
11.73
11.72
11.33
10.50
9.20
7.56
5.77
3.97
2.14
0.08
-2.29
-4.79
-6.88
-7.89
-7.30
-5.15
-1.91
1.59
4.74
7.29
9.38
11.33
13.36
15.39
17.18
18.54
19.49
20.29
21.26
22.58
24.18
25.77
27.04
27.76
27.88
27.48
26.66
25.45
23.92
22.05
19.81
17.14
14.00
10.39
6.49
2.67
-0.53
-2.58
-3.14
-2.27
-0.32
2.18
4.72
7.00
8.91
10.43
11.55
12.16
12.22
11.74
10.92
10.02
9.26
8.64
7.95
6.91
5.28
3.10
0.62
-1.85
-4.08
-6.06
-7.97
-10.06
-12.48
-15.25
-18.27
-21.38
-24.40
-27.13
-29.30
-30.61
-30.79
-29.70
-27.46
-24.37
-20.87
-17.37
-14.21
-11.57
-9.47
-7.89
-6.68
-5.69
-4.80
-3.89
-2.99
-2.17
-1.55
-1.18
-1.06
-1.15
-1.39
-1.76
-2.33
-3.17
-4.33
-5.77
-7.40
-9.06
-10.70
-12.35
-14.11
-16.08
-18.17
-20.06
-21.29
-21.38
-20.19
-17.93
-15.14
-12.42
-10.11
-8.18
-6.31
-4.22
-1.91
0.21
1.53
1.67
0.75
-0.49
-1.00
0.12
3.14
7.55
12.23
15.90
17.68
17.31
15.22
12.28
9.33
6.97
5.29
4.01
2.66
0.81
-1.75
-4.94
-8.42
-11.70
-14.26
-15.65
-15.60
-14.13
-11.42
-7.83
-3.75
0.53
4.80
8.94
12.74
15.99
18.46
20.09
21.04
21.63
22.23
23.06
24.12
25.21
26.04
26.38
26.08
25.13
23.56
21.50
19.13
16.72
14.52
12.68
11.13
9.58
7.61
4.86
1.29
-2.84
-6.97
-10.48
-12.88
-13.92
-13.63
-12.18
-9.84
-6.91
-3.70
-0.48
2.48
4.99
6.94
8.35
9.30
9.98
10.61
11.41
12.53
13.97
15.55
16.92
17.73
17.66
16.65
14.90
12.71
10.41
8.17
5.95
3.62
1.09
-1.67
-4.54
-7.38
-10.01
-12.30
-14.02
-14.96
-14.91
-13.80
-11.77
-9.25
-6.79
-4.90
-3.86
-3.61
-3.94
-4.61
-5.49
-6.71
-8.45
-10.79
-13.61
-16.60
-19.34
-21.50
-22.96
-23.87
-24.48
-25.12
-25.97
-27.05
-28.19
-29.19
-29.86
-30.18
-30.26
-30.38
-30.80
-31.70
-33.05
-34.56
-35.80
-36.29
-35.66
-33.69
-30.32
-25.52
-19.29
-11.63
-2.67
7.21
17.30
26.61
34.12
39.14
41.55
41.85
40.97
39.83
39.03
38.74
38.80
39.00
39.33
39.95
41.08
42.73
44.60
46.13
46.84
46.41
44.90
42.59
39.80
36.66
33.06
28.72
23.45
17.40
11.01
5.02
0.18
-3.04
-4.56
-4.76
-4.27
-3.73
-3.57
-3.93
-4.71
-5.62
-6.52
-7.35
-8.17
-9.00
-9.72
-10.05
-9.71
-8.61
-6.88
-4.99
-3.43
-2.57
-2.47
-2.89
-3.51
-4.10
-4.69
-5.52
-6.95
-9.16
-12.12
-15.60
-19.22
-22.62
-25.50
-27.63
-28.84
-28.99
-28.02
-26.00
-23.18
-19.91
-16.59
-13.59
-11.07
-9.09
-7.58
-6.39
-5.40
-4.51
-3.61
-2.65
-1.60
-0.44
0.78
2.01
3.06
3.74
3.85
3.29
2.16
0.77
-0.58
-1.66
-2.50
-3.35
-4.51
-6.19
-8.43
-11.03
-13.64
-15.86
-17.34
-17.82
-17.23
-15.64
-13.30
-10.51
-7.60
-4.76
-2.09
0.37
2.56
4.37
5.70
6.51
6.98
7.41
8.11
9.23
10.64
11.96
12.74
12.68
11.79
10.35
8.77
7.42
6.37
5.51
4.57
3.31
1.61
-0.48
-2.75
-5.04
-7.25
-9.29
-11.08
-12.37
-12.82
-12.09
-10.02
-6.79
-2.87
1.05
4.42
6.97
8.77
10.10
11.24
12.30
13.24
13.92
14.31
14.58
15.02
15.87
17.21
18.91
20.62
22.00
22.82
23.01
22.74
22.20
21.63
21.15
20.72
20.19
19.37
18.10
16.40
14.38
12.24
10.17
8.29
6.72
5.59
5.05
5.25
6.27
7.99
10.06
11.99
13.26
13.60
13.01
11.74
10.17
8.66
7.37
6.35
5.54
4.84
4.22
3.65
3.08
2.46
1.73
0.87
-0.10
-1.15
-2.28
-3.53
-4.97
-6.65
-8.57
-10.65
-12.80
-14.87
-16.67
-17.95
-18.39
-17.79
-16.15
-13.76
-11.13
-8.81
-7.15
-6.23
-5.89
-5.84
-5.91
-6.08
-6.40
-6.91
-7.50
-8.01
-8.31
-8.38
-8.39
-8.62
-9.22
-10.23
-11.42
-12.52
-13.26
-13.57
-13.61
-13.69
-14.15
-15.22
-16.90
-18.94
-20.86
-22.14
-22.38
-21.42
-19.41
-16.72
-13.74
-10.80
-8.09
-5.62
-3.40
-1.48
0.02
0.96
1.29
1.09
0.54
-0.17
-0.98
-1.88
-2.92
-4.04
-5.12
-5.94
-6.31
-6.16
-5.58
-4.82
-4.22
-4.05
-4.51
-5.63
-7.30
-9.32
-11.41
-13.24
-14.54
-15.08
-14.75
-13.56
-11.68
-9.30
-6.65
-3.97
-1.41
0.85
2.68
4.02
4.89
5.45
5.85
6.16
6.35
6.31
5.96
5.38
4.79
4.44
4.44
4.74
5.06
5.22
5.07
4.64
4.07
3.46
2.74
1.82
0.59
-0.81
-2.06
-2.71
-2.44
-1.15
0.93
3.40
5.84
8.01
9.91
11.66
13.37
15.02
16.44
17.44
17.95
18.08
18.13
18.41
19.10
20.17
21.42
22.53
23.25
23.48
23.29
22.84
22.30
21.74
21.10
20.18
18.76
16.68
13.97
10.89
7.80
5.06
2.91
1.38
0.31
-0.47
-1.09
-1.54
-1.81
-1.90
-2.03
-2.49
-3.52
-5.22
-7.41
-9.67
-11.59
-12.85
-13.37
-13.28
-12.88
-12.39
-11.96
-11.60
-11.24
-10.90
-10.62
-10.61
-11.04
-12.01
-13.46
-15.20
-17.04
-18.84
-20.57
-22.24
-23.80
-25.05
-25.71
-25.46
-24.21
-22.06
-19.31
-16.35
-13.48
-10.83
-8.41
-6.14
-4.01
-2.10
-0.50
0.68
1.42
1.81
1.99
2.10
2.28
2.49
2.63
2.54
2.08
1.25
0.11
-1.15
-2.41
-3.61
-4.82
-6.19
-7.90
-10.05
-12.52
-14.96
-16.90
-17.84
-17.47
-15.84
-13.33
-10.45
-7.64
-5.12
-2.83
-0.58
1.70
3.92
5.76
6.95
7.42
7.37
7.16
7.10
7.33
7.72
8.03
8.05
7.74
7.21
6.69
6.30
6.04
5.76
5.29
4.54
3.58
2.56
1.64
0.83
0.02
-0.99
-2.29
-3.77
-5.15
-6.03
-6.08
-5.14
-3.31
-0.83
2.00
5.00
8.06
11.22
14.46
17.69
20.71
23.28
25.21
26.48
27.23
27.68
28.04
28.42
28.83
29.16
29.34
29.28
28.93
28.29
27.39
26.26
25.00
23.67
22.26
20.77
19.15
17.35
15.35
13.14
10.66
7.87
4.77
1.52
-1.54
-3.94
-5.22
-5.25
-4.23
-2.69
-1.23
-0.28
0.05
-0.02
-0.20
-0.30
-0.31
-0.44
-0.87
-1.67
-2.70
-3.67
-4.30
-4.44
-4.17
-3.80
-3.65
-3.95
-4.67
-5.55
-6.27
-6.61
-6.62
-6.55
-6.80
-7.59
-8.99
-10.87
-13.05
-15.39
-17.86
-20.41
-22.82
-24.73
-25.67
-25.34
-23.69
-21.02
-17.85
-14.76
-12.20
-10.35
-9.13
-8.30
-7.58
-6.79
-5.88
-4.94
-4.11
-3.43
-2.84
-2.21
-1.43
-0.57
0.19
0.53
0.26
-0.61
-1.88
-3.26
-4.47
-5.42
-6.20
-7.01
-8.03
-9.35
-10.93
-12.61
-14.18
-15.42
-16.16
-16.28
-15.68
-14.31
-12.21
-9.45
-6.30
-3.06
-0.13
2.20
3.77
4.61
4.93
5.04
5.21
5.54
6.02
6.55
6.99
7.28
7.42
7.48
7.50
7.50
7.37
6.98
6.24
5.26
4.29
3.61
3.44
3.74
4.29
4.64
4.49
3.63
2.10
0.11
-2.03
-4.02
-5.59
-6.47
-6.48
-5.52
-3.66
-1.17
1.58
4.26
6.69
8.88
10.97
13.09
15.26
17.34
19.19
20.66
21.71
22.43
22.93
23.33
23.69
24.08
24.51
24.98
25.41
25.65
25.53
24.94
23.93
22.64
21.32
20.08
18.95
17.74
16.22
14.23
11.73
8.89
5.99
3.32
1.19
-0.17
-0.62
-0.11
1.22
3.01
4.88
6.39
7.28
7.46
7.05
6.27
5.33
4.37
3.43
2.49
1.54
0.55
-0.36
-1.12
-1.61
-1.85
-1.92
-2.05
-2.46
-3.31
-4.69
-6.53
-8.74
-11.19
-13.70
-16.11
-18.31
-20.28
-22.13
-24.05
-26.19
-28.52
-30.70
-32.24
-32.66
-31.75
-29.65
-26.73
-23.41
-20.02
-16.72
-13.59
-10.73
-8.36
-6.71
-5.88
-5.78
-6.07
-6.37
-6.38
-6.03
-5.50
-5.08
-4.95
-5.18
-5.69
-6.35
-7.07
-7.80
-8.53
-9.29
-10.06
-10.85
-11.70
-12.71
-13.91
-15.31
-16.70
-17.74
-18.01
-17.14
-14.95
-11.54
-7.28
-2.66
1.78
5.61
8.53
10.43
11.31
11.28
10.55
9.38
8.06
6.81
5.78
5.00
4.38
3.84
3.24
2.50
1.62
0.60
-0.46
-1.45
-2.30
-3.05
-3.90
-5.10
-6.93
-9.37
-12.15
-14.65
-16.18
-16.20
-14.57
-11.56
-7.78
-3.87
-0.35
2.55
4.87
6.69
8.05
8.84
8.92
8.25
7.00
5.53
4.24
3.40
3.06
3.04
3.09
2.94
2.50
1.78
0.82
-0.32
-1.70
-3.45
-5.70
-8.46
-11.50
-14.35
-16.38
-17.03
-16.02
-13.37
-9.50
-4.97
-0.32
4.07
8.06
11.64
14.85
17.70
20.17
22.16
23.62
24.53
24.97
25.13
25.20
25.33
25.56
25.71
25.55
24.89
23.69
22.02
20.02
17.70
14.96
11.65
7.78
3.65
-0.14
-2.91
-4.17
-3.75
-1.93
0.80
3.90
7.00
9.94
12.66
15.07
16.97
18.14
18.45
18.00
17.09
16.11
15.35
14.94
14.72
14.42
13.74
12.47
10.60
8.23
5.57
2.77
-0.11
-3.10
-6.27
-9.68
-13.28
-16.89
-20.25
-23.06
-25.05
-26.09
-26.09
-25.09
-23.16
-20.46
-17.23
-13.76
-10.33
-7.22
-4.61
-2.62
-1.30
-0.60
-0.37
-0.39
-0.43
-0.31
-0.01
0.37
0.66
0.66
0.31
-0.38
-1.34
-2.54
-4.01
-5.75
-7.70
-9.74
-11.77
-13.74
-15.75
-18.02
-20.62
-23.42
-26.02
-27.78
-28.10
-26.66
-23.57
-19.33
-14.62
-10.07
-6.02
-2.57
0.34
2.74
4.52
5.57
5.78
5.28
4.41
3.64
3.34
3.60
4.19
4.69
4.71
4.04
2.74
1.15
-0.38
-1.58
-2.34
-2.78
-3.10
-3.47
-3.99
-4.68
-5.52
-6.44
-7.34
-8.01
-8.13
-7.36
-5.41
-2.30
1.68
6.02
10.10
13.44
15.80
17.19
17.79
17.88
17.72
17.58
17.60
17.81
18.13
18.36
18.25
17.62
16.33
14.42
12.01
9.28
6.45
3.72
1.25
-0.88
-2.69
-4.36
-6.15
-8.28
-10.78
-13.41
-15.67
-16.99
-16.92
-15.37
-12.61
-9.18
-5.71
-2.70
-0.43
1.03
1.77
1.91
1.55
0.83
-0.03
-0.76
-1.05
-0.70
0.28
1.65
3.04
4.02
4.31
3.86
2.78
1.29
-0.41
-2.18
-3.95
-5.73
-7.56
-9.50
-11.64
-14.02
-16.57
-19.12
-21.32
-22.76
-23.04
-21.92
-19.42
-15.88
-11.73
-7.47
-3.48
0.11
3.30
6.20
8.83
11.12
12.92
14.08
14.59
14.51
14.04
13.37
12.66
11.94
11.16
10.16
8.75
6.87
4.61
2.23
0.04
-1.77
-3.20
-4.48
-5.95
-7.84
-10.18
-12.73
-14.99
-16.39
-16.44
-14.90
-11.83
-7.63
-2.92
1.64
5.50
8.40
10.27
11.26
11.49
11.08
10.11
8.74
7.25
6.00
5.28
5.13
5.36
5.61
5.57
5.11
4.37
3.62
3.14
3.01
3.12
3.23
3.06
2.40
1.21
-0.46
-2.49
-4.70
-6.85
-8.66
-9.80
-9.99
-9.09
-7.19
-4.58
-1.68
1.18
3.79
6.18
8.45
10.66
12.75
14.49
15.73
16.38
16.59
16.65
16.84
17.33
18.05
18.85
19.51
19.83
19.83
19.53
19.06
18.49
17.84
17.04
15.98
14.49
12.42
9.68
6.36
2.71
-0.88
-3.96
-6.19
-7.37
-7.51
-6.76
-5.38
-3.63
-1.73
0.10
1.70
2.85
3.41
3.33
2.71
1.79
0.86
0.20
-0.01
0.26
0.88
1.64
2.31
2.71
2.75
2.42
1.72
0.68
-0.69
-2.39
-4.36
-6.61
-9.12
-11.95
-15.09
-18.49
-21.95
-25.03
-27.27
-28.19
-27.56
-25.45
-22.19
-18.32
-14.30
-10.45
-6.91
-3.65
-0.64
2.03
4.23
5.77
6.57
6.70
6.38
5.93
5.54
5.32
5.20
4.95
4.40
3.44
2.16
0.73
-0.59
-1.64
-2.36
-2.86
-3.29
-3.75
-4.28
-4.86
-5.43
-6.07
-6.83
-7.72
-8.59
-9.03
-8.57
-6.90
-4.01
-0.31
3.58
7.10
9.99
12.30
14.36
16.47
18.74
21.02
22.99
24.37
25.02
25.05
24.73
24.33
24.05
23.87
23.69
23.33
22.66
21.70
20.55
19.37
18.33
17.50
16.84
16.24
15.51
14.55
13.29
11.80
10.21
8.67
7.39
6.44
5.97
6.02
6.63
7.80
9.38
11.16
12.81
14.04
14.66
14.66
14.21
13.55
12.89
12.36
11.91
11.47
10.92
10.17
9.23
8.11
6.84
5.42
3.83
2.02
-0.00
-2.12
-4.14
-5.84
-7.12
-8.02
-8.83
-9.99
-11.85
-14.60
-18.11
-22.00
-25.76
-28.84
-30.87
-31.69
-31.31
-29.90
-27.73
-25.11
-22.30
-19.49
-16.81
-14.36
-12.26
-10.64
-9.59
-9.08
-8.89
-8.74
-8.40
-7.76
-6.92
-6.01
-5.19
-4.45
-3.74
-3.06
-2.53
-2.41
-2.90
-4.10
-5.81
-7.68
-9.41
-10.81
-11.98
-13.17
-14.66
-16.57
-18.80
-21.10
-23.15
-24.59
-25.17
-24.71
-23.23
-20.88
-17.96
-14.86
-11.90
-9.27
-7.02
-5.08
-3.39
-1.95
-0.80
0.02
0.59
1.11
1.81
2.78
3.94
5.07
5.89
6.33
6.42
6.38
6.39
6.49
6.57
6.47
6.09
5.45
4.73
4.10
3.61
3.16
2.54
1.54
0.17
-1.37
-2.65
-3.21
-2.79
-1.37
0.81
3.37
5.99
8.37
10.37
11.89
12.89
13.32
13.20
12.66
11.86
11.00
10.24
9.64
9.19
8.86
8.65
8.57
8.65
8.81
8.92
8.88
8.58
8.06
7.36
6.54
5.62
4.52
3.18
1.56
-0.35
-2.52
-4.92
-7.42
-9.81
-11.77
-12.95
-13.14
-12.29
-10.63
-8.52
-6.35
-4.39
-2.78
-1.54
-0.68
-0.24
-0.23
-0.62
-1.27
-1.96
-2.45
-2.57
-2.30
-1.78
-1.28
-1.09
-1.47
-2.50
-4.12
-6.07
-8.09
-9.95
-11.54
-12.90
-14.13
-15.35
-16.62
-17.95
-19.32
-20.71
-22.09
-23.36
-24.31
-24.66
-24.13
-22.61
-20.24
-17.35
-14.37
-11.62
-9.21
-7.08
-5.05
-3.01
-0.93
1.09
2.85
4.19
5.02
5.42
5.50
5.46
5.42
5.36
5.17
4.69
3.88
2.80
1.64
0.56
-0.41
-1.41
-2.69
-4.41
-6.55
-8.95
-11.34
-13.59
-15.70
-17.78
-19.83
-21.65
-22.82
-22.90
-21.65
-19.17
-15.90
-12.39
-9.13
-6.42
-4.27
-2.53
-1.04
0.33
1.58
2.69
3.62
4.43
5.29
6.38
7.82
9.53
11.27
12.71
13.49
13.49
12.82
11.77
10.68
9.77
9.08
8.50
7.90
7.22
6.47
5.72
4.99
4.28
3.62
3.10
2.96
3.46
4.82
7.08
10.01
13.18
16.08
18.30
19.64
20.12
19.92
19.26
18.28
17.07
15.66
14.14
12.64
11.35
10.41
9.84
9.60
9.54
9.48
9.29
8.88
8.26
7.53
6.81
6.17
5.56
4.75
3.40
1.24
-1.84
-5.63
-9.67
-13.39
-16.26
-17.97
-18.45
-17.78
-16.13
-13.73
-10.76
-7.50
-4.28
-1.49
0.56
1.63
1.74
1.13
0.16
-0.78
-1.45
-1.82
-2.04
-2.33
-2.87
-3.73
-4.87
-6.20
-7.68
-9.33
-11.28
-13.64
-16.55
-20.07
-24.16
-28.68
-33.42
-38.04
-42.07
-44.95
-46.08
-44.94
-41.33
-35.47
-28.01
-19.88
-11.97
-4.99
0.78
5.33
8.88
11.60
13.57
14.71
14.96
14.38
13.22
11.85
10.63
9.76
9.27
9.04
8.89
8.78
8.69
8.70
8.84
9.03
9.07
8.65
7.46
5.29
2.06
-2.03
-6.62
-11.17
-15.07
-17.79
-18.95
-18.47
-16.48
-13.40
-9.77
-6.10
-2.81
-0.14
1.84
3.17
3.95
4.33
4.50
4.64
4.96
5.54
6.31
7.05
7.45
7.20
6.18
4.43
2.18
-0.24
-2.58
-4.70
-6.64
-8.57
-10.73
-13.28
-16.17
-19.12
-21.63
-23.12
-23.14
-21.43
-18.14
-13.59
-8.27
-2.69
2.74
7.68
11.96
15.46
18.23
20.36
22.03
23.39
24.50
25.39
25.99
26.26
26.18
25.79
25.15
24.28
23.23
22.06
20.90
19.91
19.23
18.85
18.60
18.18
17.26
15.58
13.17
10.34
7.57
5.43
4.34
4.42
5.55
7.38
9.58
11.87
14.13
16.25
18.13
19.59
20.39
20.39
19.62
18.33
16.90
15.73
15.06
14.85
14.81
14.57
13.85
12.64
11.16
9.77
8.72
8.01
7.37
6.37
4.62
1.96
-1.51
-5.39
-9.20
-12.47
-14.80
-15.91
-15.63
-13.95
-11.01
-7.14
-2.80
1.44
5.03
7.60
8.93
9.09
8.36
7.07
5.57
4.06
2.61
1.22
-0.12
-1.34
-2.33
-2.99
-3.34
-3.55
-3.91
-4.68
-5.99
-7.76
-9.84
-12.04
-14.35
-16.90
-19.82
-23.03
-26.11
-28.39
-29.17
-28.06
-25.13
-20.92
-16.18
-11.56
-7.49
-4.05
-1.15
1.29
3.28
4.74
5.56
5.74
5.45
4.90
4.37
3.98
3.70
3.34
2.71
1.67
0.31
-1.18
-2.58
-3.78
-4.87
-6.13
-7.90
-10.40
-13.61
-17.25
-20.89
-23.97
-25.98
-26.49
-25.33
-22.57
-18.58
-13.92
-9.14
-4.66
-0.66
2.85
5.85
8.28
9.94
10.71
10.61
9.93
9.11
8.55
8.47
8.78
9.19
9.42
9.34
8.98
8.50
8.02
7.52
6.87
5.96
4.77
3.41
2.07
0.83
-0.36
-1.72
-3.43
-5.45
-7.43
-8.73
-8.69
-6.87
-3.31
1.45
6.56
11.20
14.89
17.57
19.61
21.43
23.31
25.21
26.80
27.75
27.92
27.50
26.91
26.53
26.50
26.64
26.53
25.80
24.29
22.17
19.81
17.56
15.68
14.07
12.52
10.72
8.43
5.62
2.32
-1.34
-5.18
-9.01
-12.52
-15.28
-16.83
-16.80
-15.14
-12.12
-8.36
-4.57
-1.36
0.97
2.43
3.19
3.44
3.27
2.63
1.52
0.07
-1.38
-2.41
-2.64
-1.97
-0.68
0.67
1.40
1.11
-0.30
-2.53
-5.04
-7.33
-9.16
-10.63
-12.02
-13.75
-16.03
-18.92
-22.20
-25.53
-28.46
-30.49
-31.15
-30.15
-27.39
-23.07
-17.60
-11.55
-5.49
0.05
4.66
8.14
10.45
11.74
12.27
12.32
12.15
11.90
11.58
11.20
10.79
10.39
10.03
9.65
9.09
8.15
6.67
4.66
2.34
-0.01
-2.13
-3.92
-5.52
-7.23
-9.33
-12.05
-15.38
-19.12
-22.86
-26.04
-28.07
-28.40
-26.73
-23.03
-17.62
-11.11
-4.21
2.41
8.25
13.10
16.85
19.54
21.17
21.82
21.67
21.03
20.29
19.75
19.56
19.64
19.76
19.68
19.19
18.24
16.86
15.11
13.06
10.75
8.29
5.80
3.41
1.22
-0.79
-2.75
-4.82
-7.06
-9.39
-11.49
-12.88
-13.06
-11.71
-8.77
-4.57
0.36
5.39
10.01
13.91
16.98
19.19
20.56
21.14
21.07
20.63
20.22
20.21
20.84
22.13
23.81
25.47
26.66
27.10
26.69
25.55
23.92
22.04
20.01
17.84
15.46
12.85
9.98
6.89
3.58
0.02
-3.80
-7.77
-11.55
-14.63
-16.42
-16.47
-14.68
-11.33
-7.04
-2.52
1.56
4.82
7.05
8.24
8.37
7.53
5.84
3.65
1.43
-0.28
-1.16
-1.18
-0.62
0.00
0.18
-0.40
-1.82
-3.85
-6.17
-8.45
-10.53
-12.40
-14.18
-16.07
-18.22
-20.72
-23.55
-26.54
-29.40
-31.68
-32.88
-32.58
-30.56
-26.87
-21.92
-16.32
-10.67
-5.46
-1.02
2.51
5.04
6.57
7.22
7.27
7.14
7.23
7.77
8.71
9.76
10.56
10.79
10.38
9.39
8.02
6.44
4.73
2.91
0.99
-1.02
-3.12
-5.36
-7.87
-10.77
-14.10
-17.65
-20.91
-23.23
-23.99
-22.88
-20.07
-16.11
-11.79
-7.82
-4.60
-2.18
-0.33
1.19
2.49
3.51
4.09
4.18
3.99
3.95
4.47
5.76
7.64
9.58
10.91
11.19
10.37
8.79
7.04
5.53
4.43
3.56
2.61
1.34
-0.32
-2.28
-4.41
-6.69
-9.18
-11.93
-14.81
-17.43
-19.13
-19.26
-17.42
-13.63
-8.46
-2.81
2.46
6.75
10.00
12.55
14.88
17.35
19.95
22.47
24.59
26.20
27.42
28.54
29.77
31.08
32.22
32.78
32.44
31.16
29.20
26.94
24.76
22.82
21.02
19.09
16.75
13.78
10.18
6.05
1.56
-3.04
-7.45
-11.23
-13.90
-15.01
-14.27
-11.76
-7.85
-3.20
1.47
5.53
8.49
10.12
10.37
9.40
7.50
5.08
2.56
0.34
-1.36
-2.51
-3.20
-3.68
-4.21
-5.02
-6.21
-7.76
-9.56
-11.48
-13.43
-15.42
-17.55
-19.87
-22.48
-25.38
-28.50
-31.61
-34.30
-35.99
-36.11
-34.28
-30.56
-25.44
-19.73
-14.17
-9.26
-5.09
-1.53
1.52
3.95
5.48
5.87
5.15
3.69
2.17
1.23
1.18
1.95
3.13
4.14
4.57
4.28
3.44
2.32
1.22
0.26
-0.67
-1.77
-3.27
-5.33
-7.96
-11.04
-14.30
-17.41
-19.97
-21.66
-22.18
-21.38
-19.27
-16.05
-12.08
-7.77
-3.53
0.36
3.74
6.55
8.79
10.44
11.48
11.93
11.88
11.54
11.12
10.84
10.81
10.96
11.09
10.93
10.20
8.75
6.61
4.00
1.25
-1.35
-3.68
-5.87
-8.16
-10.88
-14.13
-17.75
-21.31
-24.13
-25.58
-25.21
-22.94
-19.05
-14.14
-8.84
-3.69
1.02
5.21
8.92
12.12
14.68
16.40
17.20
17.21
16.77
16.33
16.20
16.49
17.02
17.52
17.74
17.59
17.14
16.55
15.94
15.34
14.64
13.72
12.52
11.03
9.34
7.49
5.47
3.20
0.66
-2.04
-4.55
-6.38
-6.97
-6.01
-3.51
0.08
4.11
7.90
11.02
13.35
15.00
16.17
16.90
17.14
16.80
15.95
14.82
13.81
13.25
13.22
13.50
13.70
13.37
12.26
10.37
7.96
5.41
3.08
1.15
-0.43
-1.81
-3.19
-4.69
-6.36
-8.21
-10.22
-12.37
-14.63
-16.80
-18.59
-19.56
-19.33
-17.74
-14.90
-11.29
-7.54
-4.29
-1.96
-0.69
-0.38
-0.73
-1.48
-2.45
-3.46
-4.40
-5.06
-5.23
-4.80
-3.84
-2.68
-1.85
-1.84
-2.90
-4.94
-7.52
-10.11
-12.35
-14.15
-15.68
-17.34
-19.40
-21.96
-24.92
-28.00
-30.89
-33.25
-34.77
-35.18
-34.27
-31.92
-28.20
-23.39
-17.90
-12.27
-6.96
-2.37
1.30
4.02
5.89
7.08
7.79
8.15
8.29
8.30
8.30
8.34
8.43
8.47
8.31
7.80
6.90
5.64
4.11
2.34
0.33
-1.92
-4.40
-6.99
-9.61
-12.27
-15.08
-18.13
-21.35
-24.39
-26.63
-27.43
-26.30
-23.22
-18.67
-13.39
-8.16
-3.56
0.17
3.04
5.18
6.69
7.66
8.15
8.28
8.30
8.47
8.99
9.92
11.06
12.12
12.75
12.75
12.11
10.94
9.39
7.64
5.78
3.91
2.11
0.47
-0.98
-2.25
-3.53
-5.06
-7.03
-9.48
-12.12
-14.39
-15.63
-15.37
-13.42
-10.05
-5.86
-1.50
2.58
6.21
9.50
12.59
15.47
17.95
19.67
20.40
20.14
19.21
18.08
17.19
16.75
16.69
16.72
16.54
15.87
14.64
12.88
10.78
8.60
6.62
5.10
4.19
3.92
4.17
4.72
5.33
5.75
5.79
5.38
4.63
3.81
3.36
3.76
5.37
8.20
11.93
15.91
19.44
21.94
23.15
23.12
22.04
20.20
17.79
15.01
12.13
9.46
7.32
5.88
5.06
4.53
3.84
2.66
0.82
-1.55
-4.18
-6.83
-9.33
-11.68
-14.02
-16.50
-19.28
-22.38
-25.67
-28.83
-31.43
-33.00
-33.18
-31.83
-29.01
-25.04
-20.36
-15.38
-10.50
-6.02
-2.22
0.68
2.48
3.14
2.78
1.76
0.58
-0.22
-0.31
0.32
1.37
2.31
2.63
2.03
0.54
-1.58
-3.97
-6.34
-8.50
-10.41
-12.14
-13.77
-15.48
-17.49
-19.95
-22.91
-26.07
-28.89
-30.62
-30.57
-28.39
-24.21
-18.59
-12.31
-6.14
-0.63
3.95
7.56
10.20
11.93
12.80
12.97
12.68
12.25
11.98
12.01
12.30
12.57
12.51
11.86
10.62
9.04
7.54
6.53
6.16
6.24
6.33
5.86
4.46
2.05
-1.10
-4.46
-7.34
-9.17
-9.54
-8.37
-5.83
-2.28
1.80
6.05
10.23
14.20
17.83
20.94
23.29
24.71
25.22
25.08
24.73
24.57
24.77
25.20
25.55
25.52
24.97
24.03
22.93
21.86
20.81
19.54
17.75
15.20
11.89
7.99
3.76
-0.62
-5.01
-9.25
-13.11
-16.16
-17.93
-18.14
-16.82
-14.43
-11.65
-9.16
-7.39
-6.42
-6.08
-6.18
-6.55
-7.16
-8.03
-9.09
-10.12
-10.83
-11.05
-10.77
-10.26
-9.97
-10.32
-11.60
-13.73
-16.40
-19.10
-21.33
-22.79
-23.52
-23.84
-24.19
-24.94
-26.17
-27.62
-28.76
-28.96
-27.76
-25.03
-21.01
-16.20
-11.16
-6.33
-1.94
1.95
5.30
8.03
10.00
11.17
11.60
11.54
11.34
11.30
11.56
11.98
12.22
11.92
10.81
8.94
6.65
4.44
2.71
1.54
0.61
-0.69
-2.90
-6.27
-10.60
-15.37
-19.96
-23.84
-26.67
-28.20
-28.19
-26.50
-23.11
-18.27
-12.58
-6.73
-1.36
3.18
6.87
9.87
12.37
14.43
15.98
16.96
17.35
17.36
17.27
17.32
17.60
17.99
18.18
17.92
17.07
15.73
14.16
12.68
11.50
10.66
9.96
9.13
7.86
6.03
3.66
1.06
-1.36
-3.13
-3.91
-3.54
-2.10
0.15
2.91
5.93
9.01
12.08
15.04
17.73
19.91
21.37
22.00
21.91
21.41
20.89
20.62
20.68
20.92
21.05
20.80
20.06
18.90
17.52
16.11
14.70
13.16
11.26
8.72
5.44
1.46
-3.03
-7.75
-12.37
-16.55
-19.87
-21.95
-22.51
-21.49
-19.13
-15.94
-12.50
-9.35
-6.82
-5.01
-3.90
-3.31
-3.13
-3.21
-3.40
-3.51
-3.35
-2.69
-1.45
0.36
2.59
5.02
7.49
10.02
12.79
16.05
19.94
24.33
28.75
32.44
34.59
34.66
32.62
29.01
24.78
21.03
18.60
17.84
18.62
20.31
22.19
23.56
23.96
23.21
21.43
18.88
15.88
12.73
9.61
6.65
3.95
1.64
-0.21
-1.66
-3.11
-5.17
-8.50
-13.43
-19.74
-26.69
-33.21
-38.47
-42.18
-44.61
-46.33
-47.89
-49.52
-51.19
-52.76
-54.19
-55.45
-56.49
-56.98
-56.39
-54.23
-50.25
-44.73
-38.33
-31.86
-25.93
-20.75
-16.21
-12.05
-8.15
-4.56
-1.42
1.15
3.28
5.21
7.22
9.43
11.69
13.71
15.16
15.84
15.82
15.28
14.49
13.61
12.77
11.99
11.26
10.55
9.73
8.65
7.11
4.95
2.20
-0.91
-3.96
-6.42
-7.86
-7.99
-6.76
-4.32
-1.01
2.75
6.49
9.76
12.22
13.65
14.04
13.59
12.60
11.49
10.61
10.17
10.26
10.76
11.46
12.07
12.31
12.04
11.27
10.20
9.10
8.15
7.40
6.70
5.83
4.53
2.64
0.07
-3.11
-6.67
-10.23
-13.24
-15.16
-15.58
-14.43
-12.07
-9.13
-6.37
-4.33
-3.26
-3.15
-3.84
-5.16
-6.99
-9.08
-10.99
-12.19
-12.20
-10.90
-8.59
-5.96
-3.76
-2.60
-2.65
-3.78
-5.64
-7.88
-10.31
-12.86
-15.56
-18.49
-21.74
-25.28
-29.01
-32.62
-35.59
-37.31
-37.28
-35.25
-31.33
-25.97
-19.78
-13.44
-7.47
-2.27
1.91
4.90
6.71
7.45
7.37
6.90
6.53
6.65
7.47
8.87
10.49
11.79
12.37
12.10
11.12
9.75
8.30
6.86
5.34
3.49
1.10
-1.92
-5.52
-9.51
-13.68
-17.67
-21.04
-23.27
-23.88
-22.59
-19.43
-14.79
-9.29
-3.58
1.79
6.53
10.51
13.72
16.12
17.71
18.49
18.51
17.99
17.20
16.41
15.84
15.50
15.24
14.84
14.05
12.75
10.94
8.77
6.45
4.20
2.13
0.15
-1.95
-4.47
-7.55
-11.03
-14.42
-17.06
-18.33
-17.92
-15.88
-12.52
-8.27
-3.46
1.68
6.94
12.04
16.63
20.34
22.94
24.49
25.31
25.92
26.75
28.05
29.69
31.33
32.47
32.77
32.11
30.63
28.65
26.44
24.09
21.60
18.81
15.62
11.99
7.95
3.57
-1.12
-5.98
-10.73
-14.87
-17.80
-18.99
-18.19
-15.56
-11.69
-7.28
-3.05
0.56
3.30
5.10
5.92
5.72
4.49
2.36
-0.30
-2.95
-5.07
-6.39
-7.01
-7.34
-7.92
-9.14
-11.04
-13.36
-15.53
-16.85
-16.72
-14.76
-11.13
-6.55
-2.20
0.63
1.11
-0.76
-4.00
-7.07
-8.43
-7.19
-3.46
1.87
7.60
12.66
16.47
18.90
20.06
20.10
19.17
17.41
15.07
12.56
10.32
8.65
7.61
6.89
6.06
4.63
2.37
-0.70
-4.34
-8.13
-11.75
-14.99
-17.84
-20.45
-23.08
-25.95
-29.14
-32.46
-35.49
-37.58
-38.11
-36.67
-33.21
-28.16
-22.24
-16.24
-10.84
-6.35
-2.81
-0.11
1.93
3.45
4.53
5.31
5.99
6.72
7.65
8.75
9.87
10.78
11.29
11.34
10.99
10.43
9.87
9.47
9.26
9.07
8.52
7.23
4.84
1.30
-3.13
-7.79
-11.87
-14.55
-15.29
-13.94
-10.78
-6.38
-1.37
3.68
8.41
12.64
16.30
19.39
21.90
23.82
25.15
25.97
26.42
26.80
27.37
28.31
29.60
30.92
31.86
32.06
31.39
30.04
28.36
26.66
24.97
23.01
20.29
16.47
11.53
5.80
-0.06
-5.40
-9.64
-12.43
-13.53
-12.89
-10.56
-6.82
-2.14
2.81
7.37
10.96
13.27
14.25
14.06
13.02
11.51
9.94
8.60
7.74
7.38
7.42
7.65
7.76
7.48
6.65
5.24
3.46
1.61
0.08
-0.89
-1.38
-1.76
-2.67
-4.75
-8.25
-13.00
-18.27
-23.09
-26.51
-27.98
-27.44
-25.35
-22.44
-19.40
-16.73
-14.59
-12.97
-11.80
-11.03
-10.66
-10.60
-10.67
-10.58
-10.00
-8.81
-7.14
-5.38
-4.09
-3.68
-4.34
-5.89
-7.94
-10.05
-11.92
-13.51
-15.06
-16.96
-19.55
-22.97
-27.10
-31.47
-35.41
-38.17
-39.13
-37.92
-34.52
-29.26
-22.70
-15.48
-8.22
-1.41
4.61
9.64
13.57
16.40
18.26
19.34
19.91
20.24
20.55
20.86
21.05
20.91
20.24
18.96
17.17
15.13
13.13
11.38
9.94
8.73
7.53
6.12
4.28
1.88
-1.10
-4.49
-7.87
-10.62
-12.06
-11.61
-9.09
-4.82
0.51
6.07
11.16
15.45
18.94
21.83
24.22
26.10
27.29
27.74
27.52
27.01
26.64
26.73
27.26
27.83
27.93
27.08
25.17
22.44
19.35
16.34
13.61
11.03
8.30
4.96
0.74
-4.42
-10.28
-16.30
-21.76
-25.87
-28.07
-28.06
-25.99
-22.32
-17.69
-12.74
-8.02
-4.02
-1.14
0.25
-0.08
-2.13
-5.60
-9.88
-14.28
-18.21
-21.39
-23.88
-25.94
-27.86
-29.79
-31.71
-33.46
-34.87
-35.83
-36.35
-36.51
-36.45
-36.29
-36.17
-36.26
-36.68
-37.47
-38.40
-38.95
-38.43
-36.15
-31.77
-25.36
-17.52
-9.13
-1.04
6.11
12.01
16.63
20.08
22.50
24.02
24.77
24.95
24.86
24.73
24.72
24.80
24.79
24.39
23.38
21.65
19.30
16.52
13.54
10.47
7.27
3.78
-0.10
-4.38
-8.80
-12.89
-16.08
-17.84
-17.81
-15.89
-12.27
-7.32
-1.53
4.57
10.54
16.01
20.77
24.68
27.70
29.80
31.00
31.39
31.07
30.19
28.96
27.53
26.09
24.68
23.34
21.97
20.43
18.55
16.20
13.31
9.89
6.08
2.10
-1.78
-5.26
-8.25
-10.81
-13.22
-15.81
-18.75
-21.90
-24.75
-26.59
-26.75
-24.89
-21.08
-15.75
-9.48
-2.89
3.58
9.53
14.67
18.75
21.64
23.36
24.07
24.04
23.53
22.76
21.92
21.15
20.67
20.62
21.09
22.02
23.24
24.59
25.97
27.37
28.78
30.05
30.87
30.77
29.33
26.37
21.96
16.52
10.65
5.08
0.52
-2.41
-3.31
-2.08
0.95
5.20
9.92
14.47
18.42
21.63
24.07
25.79
26.76
26.93
26.29
24.97
23.24
21.51
20.18
19.46
19.31
19.42
19.26
18.31
16.26
13.07
8.96
4.31
-0.48
-5.14
-9.57
-13.79
-17.89
-21.92
-25.76
-29.18
-31.78
-33.17
-33.04
-31.30
-28.13
-23.87
-19.06
-14.16
-9.51
-5.32
-1.72
1.17
3.29
4.60
5.25
5.52
5.85
6.60
7.90
9.51
10.91
11.59
11.20
9.78
7.68
5.35
3.11
0.99
-1.21
-3.70
-6.59
-9.84
-13.24
-16.59
-19.66
-22.18
-23.74
-23.87
-22.16
-18.55
-13.40
-7.51
-1.81
2.93
6.38
8.69
10.25
11.50
12.75
14.17
15.85
17.86
20.27
23.04
26.08
29.10
31.81
33.90
35.13
35.49
35.12
34.41
33.68
32.93
31.66
28.91
23.62
15.24
4.03
-8.83
-21.72
-33.16
-42.33
-49.13
-53.87
-56.86
-58.16
-57.63
-55.28
-51.42
-46.77
-42.16
-38.22
-35.23
-33.00
-31.17
-29.31
-27.22
-24.91
-22.60
-20.55
-18.99
-18.02
-17.50
-17.20
-16.81
-16.14
-15.16
-14.10
-13.25
-12.93
-13.32
-14.43
-16.11
-18.13
-20.28
-22.29
-23.85
-24.60
-24.17
-22.31
-18.99
-14.45
-9.15
-3.64
1.58
6.27
10.36
14.03
17.42
20.58
23.35
25.57
27.05
27.81
28.01
27.91
27.74
27.55
27.29
26.76
25.79
24.33
22.47
20.37
18.18
16.05
13.96
11.82
9.46
6.74
3.60
0.09
-3.50
-6.79
-9.34
-10.73
-10.74
-9.38
-6.94
-3.85
-0.63
2.27
4.50
5.88
6.35
6.00
4.98
3.53
1.88
0.27
-1.12
-2.19
-2.95
-3.51
-4.09
-4.92
-6.16
-7.84
-9.89
-12.07
-14.20
-16.12
-17.77
-19.21
-20.56
-21.97
-23.58
-25.54
-27.91
-30.59
-33.31
-35.52
-36.65
-36.22
-34.09
-30.51
-26.01
-21.21
-16.59
-12.32
-8.40
-4.71
-1.20
2.02
4.73
6.75
8.05
8.77
9.18
9.50
9.78
9.90
9.60
8.66
7.02
4.83
2.43
0.17
-1.69
-3.10
-4.17
-5.09
-6.10
-7.31
-8.79
-10.53
-12.45
-14.39
-16.13
-17.36
-17.77
-17.11
-15.30
-12.46
-8.88
-4.96
-1.03
2.67
6.02
8.93
11.29
12.96
13.81
13.86
13.29
12.48
11.89
11.84
12.51
13.75
15.27
16.63
17.43
17.44
16.60
15.09
13.20
11.25
9.45
7.83
6.22
4.37
2.10
-0.61
-3.57
-6.40
-8.66
-9.99
-10.18
-9.24
-7.34
-4.75
-1.80
1.24
4.11
6.71
9.03
11.09
12.99
14.78
16.52
18.22
19.91
21.61
23.29
24.87
26.21
27.18
27.66
27.60
27.00
25.96
24.54
22.84
20.93
18.85
16.58
14.10
11.33
8.17
4.53
0.38
-4.18
-8.84
-13.11
-16.38
-18.12
-18.10
-16.42
-13.49
-9.90
-6.29
-3.14
-0.79
0.62
1.09
0.72
-0.17
-1.22
-1.99
-2.15
-1.56
-0.40
0.93
1.96
2.33
2.00
1.15
0.12
-0.84
-1.66
-2.48
-3.52
-4.97
-6.91
-9.28
-11.98
-14.88
-17.80
-20.42
-22.36
-23.20
-22.65
-20.72
-17.74
-14.28
-10.97
-8.29
-6.49
-5.60
-5.43
-5.73
-6.20
-6.62
-6.82
-6.76
-6.40
-5.81
-5.07
-4.29
-3.59
-3.11
-2.98
-3.26
-3.93
-4.91
-6.14
-7.62
-9.45
-11.78
-14.77
-18.48
-22.76
-27.25
-31.44
-34.79
-36.79
-37.16
-35.83
-33.02
-29.15
-24.79
-20.43
-16.45
-12.98
-10.00
-7.37
-4.89
-2.40
0.33
3.53
7.44
12.17
17.65
23.53
29.28
34.36
38.31
40.93
42.23
42.39
41.64
40.17
38.10
35.43
32.21
28.40
24.03
19.18
13.99
8.72
3.73
-0.54
-3.57
-5.02
-4.74
-2.91
-0.02
3.29
6.41
8.91
10.65
11.73
12.33
12.60
12.61
12.36
11.88
11.24
10.59
10.03
9.63
9.32
8.96
8.40
7.54
6.34
4.82
3.03
1.05
-1.04
-3.25
-5.64
-8.32
-11.46
-15.06
-18.90
-22.50
-25.19
-26.41
-25.86
-23.67
-20.31
-16.37
-12.32
-8.40
-4.68
-1.18
1.92
4.25
5.43
5.33
4.17
2.54
1.12
0.41
0.50
1.06
1.61
1.68
1.10
-0.06
-1.54
-3.11
-4.68
-6.30
-8.07
-10.04
-12.20
-14.47
-16.75
-18.91
-20.73
-21.94
-22.18
-21.15
-18.76
-15.16
-10.76
-6.04
-1.46
2.70
6.32
9.36
11.74
13.44
14.44
14.84
14.81
14.58
14.36
14.22
14.14
13.95
13.48
12.61
11.28
9.52
7.39
4.92
2.12
-0.98
-4.34
-7.90
-11.63
-15.61
-19.87
-24.32
-28.60
-32.10
-34.16
-34.26
-32.33
-28.75
-24.23
-19.44
-14.84
-10.53
-6.46
-2.58
0.92
3.71
5.42
5.99
5.66
4.97
4.51
4.66
5.45
6.61
7.78
8.62
9.05
9.15
9.05
8.85
8.51
7.87
6.80
5.22
3.18
0.88
-1.41
-3.35
-4.58
-4.81
-3.83
-1.64
1.62
5.64
10.01
14.34
18.27
21.57
24.07
25.75
26.68
27.04
27.08
27.07
27.23
27.56
27.94
28.11
27.75
26.68
24.91
22.61
20.07
17.50
14.96
12.35
9.48
6.20
2.47
-1.60
-5.76
-9.75
-13.25
-15.92
-17.46
-17.61
-16.34
-13.82
-10.55
-7.13
-4.18
-2.11
-1.03
-0.81
-1.18
-1.88
-2.69
-3.53
-4.41
-5.34
-6.29
-7.19
-7.95
-8.52
-8.98
-9.44
-10.04
-10.88
-11.99
-13.33
-14.89
-16.71
-18.87
-21.51
-24.60
-27.94
-31.04
-33.19
-33.70
-32.13
-28.46
-23.13
-16.85
-10.39
-4.32
1.14
5.99
10.35
14.20
17.46
19.93
21.52
22.27
22.39
22.13
21.64
20.94
19.91
18.48
16.65
14.57
12.40
10.26
8.11
5.76
2.98
-0.42
-4.58
-9.50
-15.03
-20.81
-26.33
-30.94
-34.03
-35.19
-34.34
-31.76
-27.92
-23.35
-18.49
-13.65
-9.03
-4.85
-1.25
1.62
3.73
5.19
6.14
6.79
7.33
7.91
8.63
9.54
10.60
11.68
12.58
13.04
12.84
11.90
10.21
7.85
4.89
1.40
-2.58
-6.95
-11.48
-15.79
-19.43
-21.93
-22.96
-22.43
-20.50
-17.52
-13.96
-10.21
-6.56
-3.07
0.24
3.43
6.44
9.14
11.31
12.84
13.73
14.17
14.42
14.64
14.87
14.94
14.58
13.64
12.08
10.08
7.90
5.79
3.85
2.00
0.04
-2.23
-4.95
-8.08
-11.42
-14.63
-17.35
-19.21
-19.91
-19.28
-17.33
-14.17
-10.08
-5.41
-0.56
4.09
8.13
11.23
13.22
14.13
14.21
13.82
13.29
12.79
12.30
11.70
10.84
9.72
8.40
6.98
5.53
4.04
2.47
0.81
-0.91
-2.64
-4.40
-6.27
-8.34
-10.64
-13.01
-15.17
-16.68
-17.12
-16.16
-13.67
-9.73
-4.66
1.10
7.03
12.63
17.58
21.68
24.89
27.25
28.87
29.86
30.42
30.73
31.04
31.53
32.25
33.03
33.63
33.72
33.15
32.00
30.51
28.95
27.48
25.96
24.06
21.40
17.74
13.12
7.85
2.45
-2.47
-6.39
-8.93
-9.96
-9.64
-8.29
-6.40
-4.42
-2.68
-1.38
-0.58
-0.33
-0.56
-1.13
-1.78
-2.18
-1.98
-1.01
0.64
2.63
4.45
5.64
5.89
5.12
3.48
1.25
-1.30
-3.93
-6.55
-9.23
-12.13
-15.51
-19.53
-24.11
-28.87
-33.14
-36.20
-37.42
-36.47
-33.41
-28.60
-22.49
-15.61
-8.43
-1.42
4.96
10.26
14.14
16.48
17.39
17.23
16.45
15.49
14.63
13.98
13.48
12.97
12.26
11.09
9.11
5.97
1.44
-4.39
-10.99
-17.54
-23.25
-27.68
-30.88
-33.32
-35.41
-37.25
-38.39
-38.16
-35.95
-31.66
-25.71
-18.88
-12.00
-5.67
-0.21
4.31
7.80
10.15
11.30
11.26
10.29
8.86
7.49
6.59
6.39
6.87
7.79
8.84
9.68
10.02
9.74
8.84
7.50
5.97
4.52
3.32
2.36
1.46
0.38
-1.12
-3.10
-5.51
-8.11
-10.52
-12.35
-13.17
-12.70
-10.90
-7.98
-4.41
-0.69
2.74
5.73
8.27
10.48
12.40
13.98
15.09
15.64
15.69
15.41
15.04
14.74
14.53
14.29
13.80
12.88
11.43
9.51
7.33
5.18
3.32
1.92
0.95
0.18
-0.76
-2.17
-4.22
-6.73
-9.29
-11.31
-12.28
-11.86
-10.01
-6.97
-3.11
1.17
5.59
9.97
14.15
17.99
21.30
23.87
25.58
26.48
26.75
26.75
26.79
27.12
27.75
28.57
29.36
29.91
30.11
29.96
29.56
28.95
28.16
27.16
25.91
24.37
22.49
20.18
17.27
13.60
9.13
4.09
-0.99
-5.37
-8.32
-9.38
-8.56
-6.27
-3.20
-0.06
2.56
4.29
5.02
4.78
3.73
2.13
0.26
-1.56
-3.08
-4.09
-4.55
-4.53
-4.24
-3.96
-3.98
-4.48
-5.50
-6.89
-8.38
-9.74
-10.89
-11.97
-13.23
-14.96
-17.31
-20.21
-23.35
-26.27
-28.46
-29.50
-29.14
-27.39
-24.44
-20.70
-16.59
-12.65
-9.36
-7.04
-5.89
-5.85
-6.66
-7.95
-9.32
-10.46
-11.22
-11.59
-11.68
-11.64
-11.61
-11.74
-12.12
-12.79
-13.78
-15.06
-16.51
-17.99
-19.40
-20.73
-22.08
-23.64
-25.55
-27.82
-30.17
-32.12
-33.10
-32.63
-30.46
-26.68
-21.72
-16.10
-10.42
-5.16
-0.63
2.94
5.48
7.00
7.63
7.62
7.27
6.88
6.63
6.53
6.42
6.11
5.39
4.19
2.54
0.63
-1.29
-2.98
-4.22
-5.01
-5.49
-5.98
-6.82
-8.27
-10.27
-12.51
-14.40
-15.33
-14.81
-12.66
-9.02
-4.26
1.07
6.50
11.61
16.16
20.02
23.13
25.46
27.05
27.97
28.35
28.36
28.10
27.71
27.19
26.53
25.74
24.83
23.86
22.85
21.80
20.62
19.20
17.46
15.34
12.87
10.08
7.00
3.64
0.13
-3.32
-6.29
-8.28
-8.91
-8.03
-5.85
-2.84
0.41
3.34
5.60
7.01
7.57
7.38
6.58
5.34
3.83
2.29
0.93
-0.08
-0.71
-1.10
-1.51
-2.29
-3.69
-5.78
-8.39
-11.19
-13.86
-16.26
-18.43
-20.62
-23.11
-26.08
-29.44
-32.86
-35.84
-37.85
-38.52
-37.68
-35.35
-31.78
-27.23
-22.06
-16.57
-11.09
-5.93
-1.39
2.34
5.17
7.14
8.43
9.30
9.93
10.42
10.75
10.78
10.40
9.54
8.26
6.71
5.09
3.54
2.15
0.90
-0.31
-1.58
-2.99
-4.60
-6.38
-8.23
-9.95
-11.24
-11.73
-11.01
-8.80
-5.04
0.02
5.86
11.84
17.43
22.32
26.46
29.94
32.92
35.55
37.96
40.36
42.89
45.58
48.23
50.36
51.38
50.79
48.40
44.38
39.16
33.26
27.09
20.97
15.08
9.54
4.43
-0.22
-4.52
-8.66
-12.88
-17.33
-21.92
-26.28
-29.80
-31.82
-31.92
-30.03
-26.57
-22.26
-17.83
-13.73
-10.06
-6.65
-3.34
-0.12
2.77
4.99
6.38
7.01
7.23
7.49
8.12
9.21
10.60
11.98
13.02
13.56
13.51
12.99
12.11
10.98
9.64
8.11
6.34
4.27
1.84
-1.02
-4.38
-8.17
-12.14
-15.80
-18.60
-19.99
-19.69
-17.74
-14.51
-10.58
-6.56
-2.97
-0.18
1.62
2.34
2.00
0.77
-1.08
-3.11
-4.83
-5.83
-5.95
-5.32
-4.32
-3.49
-3.25
-3.86
-5.30
-7.34
-9.62
-11.88
-13.94
-15.82
-17.69
-19.78
-22.25
-25.06
-27.98
-30.51
-32.11
-32.30
-30.82
-27.74
-23.39
-18.27
-12.87
-7.63
-2.80
1.48
5.07
7.82
9.56
10.18
9.75
8.56
7.01
5.55
4.47
3.85
3.56
3.35
2.98
2.25
1.11
-0.38
-2.10
-3.88
-5.54
-6.98
-8.23
-9.43
-10.84
-12.68
-15.04
-17.77
-20.46
-22.52
-23.37
-22.59
-20.04
-15.91
-10.66
-4.83
1.07
6.64
11.66
16.01
19.66
22.56
24.71
26.18
27.11
27.75
28.32
29.02
29.93
31.02
32.16
33.24
34.09
34.61
34.72
34.41
33.71
32.73
31.56
30.24
28.68
26.76
24.30
21.18
17.39
13.09
8.56
4.19
0.47
-2.17
-3.48
-3.40
-2.16
-0.18
2.02
4.03
5.60
6.63
7.13
7.15
6.71
5.88
4.76
3.53
2.43
1.67
1.39
1.59
2.10
2.64
2.97
2.95
2.58
1.98
1.25
0.40
-0.68
-2.13
-4.14
-6.76
-9.93
-13.54
-17.39
-21.19
-24.56
-27.03
-28.16
-27.67
-25.58
-22.29
-18.43
-14.70
-11.60
-9.34
-7.80
-6.73
-5.87
-5.08
-4.38
-3.84
-3.51
-3.36
-3.36
-3.44
-3.64
-4.02
-4.68
-5.62
-6.78
-8.02
-9.22
-10.24
-11.00
-11.53
-11.94
-12.47
-13.41
-14.99
-17.33
-20.22
-23.14
-25.36
-26.13
-25.04
-22.06
-17.62
-12.38
-6.99
-1.95
2.49
6.22
9.17
11.28
12.48
12.78
12.33
11.34
10.17
9.10
8.34
7.94
7.85
7.88
7.83
7.51
6.79
5.66
4.17
2.47
0.76
-0.81
-2.12
-3.16
-4.02
-4.86
-5.83
-6.99
-8.27
-9.41
-10.07
-9.90
-8.70
-6.46
-3.40
0.15
3.76
7.15
10.10
12.55
14.54
16.11
17.30
18.12
18.65
19.01
19.40
20.01
20.93
22.11
23.33
24.30
24.87
25.03
24.98
24.97
25.15
25.54
25.94
26.06
25.60
24.38
22.34
19.56
16.26
12.75
9.49
6.89
5.29
4.81
5.31
6.45
7.86
9.20
10.33
11.16
11.65
11.75
11.39
10.58
9.38
7.96
6.54
5.33
4.49
4.09
4.12
4.40
4.63
4.47
3.67
2.14
0.05
-2.30
-4.59
-6.68
-8.66
-10.76
-13.21
-16.06
-19.18
-22.18
-24.61
-26.04
-26.13
-24.76
-22.03
-18.28
-14.03
-9.85
-6.24
-3.55
-1.97
-1.51
-2.08
-3.44
-5.26
-7.12
-8.62
-9.51
-9.83
-9.86
-10.02
-10.65
-11.89
-13.57
-15.37
-17.00
-18.35
-19.56
-20.90
-22.65
-24.99
-27.84
-30.99
-34.06
-36.58
-38.02
-37.95
-36.11
-32.58
-27.70
-22.11
-16.54
-11.60
-7.66
-4.79
-2.88
-1.69
-0.98
-0.56
-0.24
0.11
0.51
0.91
1.15
1.05
0.45
-0.66
-2.16
-3.79
-5.36
-6.75
-8.04
-9.47
-11.31
-13.74
-16.76
-20.09
-23.30
-25.83
-27.23
-27.16
-25.51
-22.43
-18.24
-13.35
-8.25
-3.37
0.92
4.40
6.97
8.64
9.52
9.76
9.49
8.89
8.08
7.22
6.40
5.71
5.17
4.71
4.23
3.65
2.87
1.84
0.50
-1.15
-3.10
-5.27
-7.61
-9.98
-12.27
-14.32
-15.83
-16.49
-15.98
-14.07
-10.78
-6.37
-1.33
3.87
8.79
13.13
16.73
19.48
21.31
22.17
22.15
21.46
20.40
19.28
18.30
17.53
16.92
16.39
15.90
15.47
15.10
14.80
14.50
14.16
13.70
13.10
12.32
11.27
9.86
8.05
5.96
3.88
2.22
1.41
1.74
3.23
5.63
8.58
11.68
14.67
17.39
19.70
21.50
22.66
23.15
23.04
22.56
22.01
21.68
21.68
21.94
22.21
22.16
21.53
20.15
18.09
15.48
12.53
9.42
6.28
3.24
0.36
-2.28
-4.68
-6.90
-9.02
-11.08
-12.88
-14.08
-14.24
-13.03
-10.47
-6.96
-3.18
0.10
2.32
3.26
2.98
1.82
0.11
-1.87
-3.96
-6.04
-8.05
-9.88
-11.45
-12.71
-13.63
-14.26
-14.74
-15.25
-15.99
-17.11
-18.67
-20.62
-22.81
-25.06
-27.21
-29.17
-30.75
-31.70
-31.66
-30.29
-27.38
-23.02
-17.63
-11.85
-6.35
-1.63
2.01
4.54
6.07
6.79
6.90
6.63
6.15
5.62
5.17
4.81
4.51
4.14
3.51
2.44
0.83
-1.32
-3.95
-6.97
-10.35
-14.14
-18.42
-23.12
-27.94
-32.33
-35.62
-37.19
-36.71
-34.16
-29.89
-24.43
-18.46
-12.59
-7.31
-2.87
0.73
3.73
6.47
9.24
12.17
15.15
18.03
20.64
22.89
24.75
26.14
26.92
26.90
25.95
24.06
21.39
18.21
14.85
11.50
8.17
4.79
1.21
-2.56
-6.30
-9.50
-11.58
-12.02
-10.59
-7.42
-2.95
2.26
7.71
13.01
17.92
22.18
25.55
27.78
28.78
28.62
27.59
26.11
24.59
23.34
22.53
22.12
22.05
22.13
22.17
22.01
21.50
20.57
19.21
17.51
15.53
13.31
10.80
7.97
4.89
1.86
-0.62
-1.99
-1.82
-0.03
3.04
6.78
10.55
13.82
16.37
18.11
19.00
19.08
18.35
17.00
15.32
13.67
12.33
11.32
10.40
9.25
7.58
5.28
2.48
-0.54
-3.52
-6.28
-8.80
-11.15
-13.48
-15.96
-18.67
-21.64
-24.70
-27.57
-29.79
-30.90
-30.61
-28.83
-25.71
-21.67
-17.21
-12.90
-9.25
-6.65
-5.32
-5.23
-6.18
-7.75
-9.47
-10.90
-11.77
-12.00
-11.68
-11.02
-10.30
-9.78
-9.67
-10.11
-11.13
-12.66
-14.63
-17.03
-19.98
-23.62
-28.03
-33.04
-38.10
-42.38
-44.92
-44.97
-42.18
-36.78
-29.48
-21.28
-13.13
-5.84
0.15
4.68
7.83
9.77
10.79
11.20
11.35
11.51
11.84
12.34
12.90
13.31
13.40
13.10
12.49
11.72
10.95
10.26
9.49
8.38
6.55
3.76
-0.03
-4.54
-9.27
-13.58
-16.86
-18.63
-18.63
-16.83
-13.46
-8.96
-3.95
0.93
5.11
8.27
10.37
11.69
12.65
13.65
14.94
16.55
18.34
20.08
21.53
22.51
22.98
22.91
22.41
21.59
20.56
19.41
18.17
16.84
15.36
13.67
11.67
9.29
6.41
2.97
-1.04
-5.41
-9.71
-13.25
-15.35
-15.48
-13.54
-9.87
-5.13
-0.08
4.77
9.21
13.28
17.13
20.82
24.30
27.40
30.03
32.17
33.94
35.46
36.76
37.77
38.23
37.89
36.52
34.07
30.68
26.65
22.36
18.12
14.09
10.21
6.28
2.04
-2.68
-7.82
-13.01
-17.66
-21.11
-22.77
-22.38
-20.03
-16.17
-11.44
-6.50
-1.93
1.83
4.44
5.74
5.65
4.29
2.04
-0.54
-2.83
-4.34
-4.87
-4.57
-3.86
-3.26
-3.14
-3.71
-4.89
-6.50
-8.33
-10.27
-12.27
-14.34
-16.43
-18.50
-20.52
-22.55
-24.71
-27.02
-29.27
-30.97
-31.50
-30.34
-27.33
-22.78
-17.37
-11.87
-6.89
-2.71
0.63
3.24
5.18
6.45
6.95
6.73
5.96
4.96
4.13
3.73
3.81
4.11
4.24
3.81
2.65
0.84
-1.31
-3.49
-5.51
-7.39
-9.32
-11.51
-14.09
-17.10
-20.43
-23.87
-27.14
-29.83
-31.49
-31.67
-30.08
-26.70
-21.80
-15.89
-9.58
-3.43
2.12
6.82
10.50
13.13
14.78
15.61
15.93
16.05
16.24
16.58
17.01
17.32
17.31
16.87
15.99
14.75
13.26
11.64
9.99
8.35
6.71
4.95
2.83
0.11
-3.40
-7.61
-12.11
-16.21
-19.18
-20.44
-19.77
-17.35
-13.62
-9.10
-4.23
0.69
5.46
9.84
13.56
16.31
17.92
18.40
17.97
17.02
15.93
14.99
14.29
13.77
13.29
12.68
11.87
10.84
9.66
8.42
7.21
6.04
4.80
3.29
1.23
-1.57
-5.09
-9.00
-12.68
-15.38
-16.41
-15.42
-12.49
-8.04
-2.73
2.81
8.12
12.94
17.13
20.61
23.33
25.25
26.49
27.23
27.75
28.24
28.75
29.23
29.52
29.45
28.93
27.93
26.44
24.50
22.13
19.32
16.13
12.63
8.88
4.94
0.85
-3.31
-7.35
-10.91
-13.52
-14.72
-14.21
-12.01
-8.49
-4.25
-0.02
3.60
6.26
7.87
8.52
8.43
7.83
6.96
6.02
5.21
4.69
4.54
4.71
5.00
5.12
4.75
3.68
1.86
-0.61
-3.53
-6.68
-9.93
-13.29
-16.83
-20.61
-24.49
-28.15
-31.04
-32.59
-32.36
-30.24
-26.48
-21.64
-16.43
-11.54
-7.45
-4.38
-2.38
-1.37
-1.17
-1.58
-2.34
-3.12
-3.65
-3.79
-3.54
-3.11
-2.79
-2.83
-3.34
-4.27
-5.46
-6.79
-8.22
-9.84
-11.80
-14.24
-17.20
-20.60
-24.19
-27.58
-30.21
-31.52
-31.01
-28.51
-24.25
-18.80
-12.93
-7.33
-2.47
1.45
4.48
6.71
8.27
9.23
9.73
9.88
9.84
9.72
9.59
9.44
9.21
8.81
8.14
7.13
5.71
3.80
1.41
-1.44
-4.72
-8.36
-12.29
-16.35
-20.27
-23.69
-26.14
-27.16
-26.49
-24.09
-20.18
-15.22
-9.66
-3.94
1.70
7.08
12.15
16.92
21.43
25.77
30.04
34.23
38.22
41.83
44.80
46.93
48.05
48.06
46.88
44.36
40.47
35.34
29.33
22.99
16.86
11.22
6.13
1.51
-2.58
-5.74
-7.31
-6.71
-3.74
1.14
6.95
12.58
17.23
20.58
22.76
24.00
24.34
23.62
21.63
18.47
14.58
10.70
7.53
5.39
4.17
3.39
2.49
1.11
-0.79
-2.95
-5.04
-6.81
-8.23
-9.47
-10.83
-12.54
-14.71
-17.21
-19.69
-21.69
-22.75
-22.55
-20.99
-18.22
-14.61
-10.67
-6.86
-3.52
-0.85
1.05
2.19
2.63
2.42
1.69
0.59
-0.71
-2.05
-3.35
-4.63
-5.97
-7.50
-9.30
-11.36
-13.57
-15.73
-17.66
-19.31
-20.82
-22.41
-24.30
-26.54
-28.93
-31.04
-32.33
-32.38
-30.97
-28.18
-24.33
-19.83
-15.03
-10.23
-5.66
-1.55
1.85
4.29
5.62
5.89
5.38
4.51
3.69
3.13
2.77
2.40
1.77
0.77
-0.53
-1.92
-3.22
-4.41
-5.58
-6.92
-8.61
-10.71
-13.13
-15.73
-18.27
-20.53
-22.22
-23.04
-22.70
-21.00
-17.92
-13.67
-8.70
-3.50
1.48
5.93
9.65
12.58
14.63
15.77
15.98
15.35
14.10
12.51
10.88
9.47
8.41
7.73
7.34
7.09
6.73
6.02
4.75
2.77
0.14
-2.99
-6.40
-9.84
-13.11
-15.99
-18.24
-19.54
-19.58
-18.18
-15.36
-11.27
-6.14
-0.09
6.79
14.47
22.68
30.94
38.62
45.17
50.27
53.93
56.35
57.79
58.41
58.29
57.45
56.03
54.18
52.06
49.78
47.24
44.24
40.54
36.01
30.66
24.70
18.45
12.37
6.94
2.62
-0.21
-1.41
-1.23
-0.27
0.57
0.34
-1.62
-5.43
-10.57
-16.07
-20.78
-23.76
-24.52
-23.09
-19.89
-15.56
-10.78
-6.24
-2.48
0.07
1.19
0.92
-0.45
-2.43
-4.42
-5.91
-6.57
-6.32
-5.32
-3.94
-2.61
-1.75
-1.63
-2.31
-3.59
-5.05
-6.29
-7.06
-7.42
-7.73
-8.46
-10.01
-12.51
-15.78
-19.34
-22.59
-24.96
-26.05
-25.66
-23.85
-20.90
-17.29
-13.60
-10.38
-8.05
-6.79
-6.50
-6.88
-7.55
-8.16
-8.49
-8.48
-8.13
-7.51
-6.73
-5.91
-5.21
-4.79
-4.77
-5.22
-6.12
-7.43
-9.09
-11.04
-13.28
-15.82
-18.64
-21.72
-24.99
-28.34
-31.54
-34.31
-36.24
-36.92
-36.05
-33.55
-29.59
-24.58
-18.99
-13.25
-7.66
-2.44
2.26
6.20
9.19
11.13
12.14
12.55
12.84
13.37
14.33
15.59
16.89
17.90
18.36
18.15
17.25
15.63
13.25
10.11
6.25
1.86
-2.76
-7.28
-11.40
-15.02
-18.09
-20.62
-22.48
-23.39
-22.94
-20.78
-16.88
-11.58
-5.55
0.47
5.88
10.46
14.33
17.74
20.89
23.81
26.36
28.40
29.91
31.08
32.13
33.17
34.13
34.69
34.51
33.40
31.45
29.00
26.46
24.15
22.18
20.42
18.65
16.65
14.25
11.29
7.64
3.21
-1.92
-7.41
-12.61
-16.68
-18.90
-18.86
-16.70
-12.94
-8.35
-3.67
0.59
4.13
6.79
8.49
9.24
9.12
8.37
7.36
6.46
5.96
5.98
6.44
7.11
7.68
7.86
7.46
6.38
4.71
2.66
0.48
-1.61
-3.44
-5.00
-6.38
-7.70
-9.12
-10.72
-12.56
-14.53
-16.41
-17.86
-18.52
-18.10
-16.51
-13.91
-10.65
-7.20
-3.96
-1.26
0.72
1.92
2.40
2.30
1.80
1.11
0.39
-0.28
-0.87
-1.45
-2.14
-3.01
-4.19
-5.71
-7.58
-9.73
-12.01
-14.24
-16.25
-17.91
-19.22
-20.33
-21.51
-23.03
-25.03
-27.39
-29.70
-31.29
-31.49
-29.83
-26.22
-21.00
-14.76
-8.26
-2.16
2.99
6.84
9.22
10.18
9.96
8.97
7.71
6.62
6.04
6.11
6.79
7.91
9.16
10.18
10.62
10.27
9.10
7.34
5.37
3.57
2.17
1.10
0.08
-1.35
-3.57
-6.81
-10.95
-15.57
-19.97
-23.38
-25.06
-24.54
-21.66
-16.60
-9.90
-2.29
5.42
12.50
18.42
22.95
26.10
28.09
29.22
29.76
30.01
30.20
30.62
31.42
32.65
34.09
35.33
35.88
35.41
33.88
31.59
29.03
26.62
24.63
23.01
21.54
19.92
17.92
15.53
12.97
10.72
9.41
9.61
11.57
15.11
19.54
23.79
26.81
27.92
27.11
25.09
23.03
22.09
22.91
25.33
28.31
30.36
30.01
26.46
19.90
11.45
2.77
-4.58
-9.63
-12.22
-12.91
-12.56
-11.95
-11.56
-11.48
-11.67
-12.05
-12.63
-13.48
-14.66
-16.18
-17.97
-19.97
-22.13
-24.43
-26.73
-28.79
-30.28
-30.80
-30.10
-28.13
-25.10
-21.48
-17.90
-14.92
-13.10
-12.71
-13.84
-16.27
-19.54
-22.97
-25.80
-27.33
-27.17
-25.35
-22.43
-19.35
-17.07
-16.30
-17.18
-19.38
-22.21
-24.98
-27.27
-29.03
-30.53
-32.15
-34.12
-36.36
-38.45
-39.71
-39.52
-37.50
-33.73
-28.66
-22.96
-17.27
-12.02
-7.40
-3.40
-0.03
2.72
4.76
6.07
6.76
7.04
7.24
7.61
8.23
8.97
9.53
9.54
8.79
7.21
4.99
2.41
-0.30
-3.00
-5.71
-8.47
-11.30
-14.12
-16.67
-18.66
-19.83
-20.01
-19.06
-16.93
-13.59
-9.17
-3.91
1.82
7.55
12.85
17.36
20.90
23.38
24.78
25.18
24.65
23.36
21.58
19.64
17.95
16.78
16.25
16.19
16.25
16.03
15.25
13.88
12.21
10.60
9.36
8.55
7.96
7.21
5.95
3.96
1.24
-1.99
-5.32
-8.21
-10.11
-10.51
-9.15
-6.07
-1.61
3.63
8.96
13.72
17.48
20.03
21.42
21.86
21.64
21.02
20.24
19.46
18.81
18.45
18.42
18.69
19.02
19.04
18.34
16.66
14.03
10.73
7.28
4.18
1.78
0.11
-1.11
-2.35
-4.11
-6.69
-10.06
-13.74
-16.90
-18.68
-18.38
-15.80
-11.29
-5.66
0.11
5.17
8.97
11.31
12.25
12.02
10.94
9.41
7.84
6.59
5.85
5.56
5.37
4.81
3.48
1.25
-1.68
-4.88
-7.82
-10.14
-11.76
-12.90
-14.00
-15.51
-17.76
-20.81
-24.38
-27.95
-30.78
-32.14
-31.48
-28.60
-23.73
-17.48
-10.69
-4.19
1.37
5.61
8.39
9.79
9.98
9.29
8.09
6.81
5.85
5.46
5.67
6.27
6.87
7.13
6.81
5.90
4.54
2.94
1.21
-0.66
-2.85
-5.57
-8.91
-12.75
-16.78
-20.50
-23.40
-25.10
-25.39
-24.26
-21.90
-18.55
-14.51
-10.05
-5.40
-0.77
3.58
7.36
10.18
11.77
12.06
11.29
10.08
9.14
9.07
10.08
11.86
13.70
14.80
14.63
13.17
10.95
8.85
7.77
8.34
10.65
14.26
18.04
20.36
19.35
13.55
2.62
-12.11
-27.70
-40.45
-47.16
-46.32
-38.66
-26.71
-13.68
-2.30
5.90
10.56
12.06
11.02
8.03
3.83
-0.67
-4.34
-6.23
-5.87
-3.47
0.07
3.58
6.07
7.03
6.60
5.39
4.23
3.79
4.27
5.41
6.61
7.16
6.54
4.64
1.70
-1.72
-4.96
-7.40
-8.57
-8.20
-6.26
-2.92
1.46
6.39
11.32
15.75
19.24
21.58
22.80
23.16
23.11
23.07
23.40
24.21
25.40
26.75
27.97
28.81
29.07
28.65
27.55
25.86
23.77
21.49
19.20
16.92
14.59
12.03
9.10
5.76
2.14
-1.41
-4.39
-6.24
-6.54
-5.14
-2.23
1.67
5.82
9.56
12.31
13.83
14.04
13.12
11.39
9.26
7.19
5.58
4.64
4.35
4.48
4.64
4.53
3.96
2.94
1.57
-0.04
-1.81
-3.72
-5.76
-7.98
-10.48
-13.43
-16.95
-20.93
-24.94
-28.27
-30.09
-29.86
-27.52
-23.58
-18.90
-14.36
-10.61
-7.95
-6.39
-5.76
-5.84
-6.37
-7.03
-7.55
-7.72
-7.57
-7.34
-7.33
-7.74
-8.48
-9.24
-9.63
-9.43
-8.84
-8.30
-8.35
-9.25
-10.91
-12.97
-14.96
-16.57
-17.68
-18.23
-18.12
-17.12
-14.99
-11.70
-7.50
-2.94
1.28
4.60
6.76
7.82
8.06
7.80
7.30
6.69
6.04
5.31
4.47
3.52
2.44
1.25
-0.09
-1.60
-3.28
-5.12
-7.06
-8.98
-10.77
-12.40
-13.89
-15.35
-16.89
-18.48
-19.90
-20.70
-20.38
-18.58
-15.27
-10.77
-5.67
-0.55
4.19
8.44
12.27
15.78
18.94
21.62
23.60
24.76
25.10
24.80
24.09
23.17
22.14
21.05
19.92
18.72
17.52
16.38
15.41
14.73
14.37
14.33
14.50
14.68
14.71
14.40
13.62
12.36
10.74
8.96
7.29
5.98
5.16
4.83
4.91
5.28
5.82
6.47
7.10
7.55
7.57
7.03
5.97
4.65
3.49
2.86
2.99
3.82
5.13
6.62
8.02
9.13
9.85
10.20
10.21
10.01
9.71
9.39
9.11
8.80
8.36
7.67
6.63
5.25
3.72
2.37
1.67
2.08
3.90
7.20
11.74
17.07
22.66
28.05
32.90
37.10
40.60
43.45
45.73
47.56
49.11
50.59
52.25
54.19
56.33
58.22
59.12
58.20
54.81
48.79
40.66
31.41
22.11
13.49
5.61
-1.97
-9.95
-18.77
-28.39
-38.26
-47.55
-55.37
-60.91
-63.48
-62.55
-57.99
-50.25
-40.49
-30.39
-21.69
-15.50
-11.92
-9.97
-8.12
-4.96
0.16
6.82
13.82
19.61
22.92
23.09
20.26
15.32
9.65
4.91
2.58
3.53
7.59
13.29
18.15
19.42
14.98
4.29
-11.32
-29.07
-45.74
-58.86
-67.47
-72.29
-75.11
-77.82
-81.62
-86.44
-91.05
-93.51
-92.01
-85.70
-75.10
-62.10
-49.29
-39.03
-32.46
-29.09
-27.19
-24.70
-20.31
-14.24
-8.08
-4.07
-4.11
-9.08
-18.63
-31.20
-44.14
-53.94
-56.70
-49.08
-29.68
0.04
35.69
71.16
100.64
120.40
129.60
129.72
123.30
112.72
99.72
85.63
71.79
59.72
50.75
45.35
42.79
41.21
38.21
31.60
20.33
4.93
-12.52
-28.94
-41.23
-47.24
-46.40
-39.68
-28.95
-16.14
-2.66
10.65
23.18
34.13
42.38
46.84
46.88
42.70
35.25
25.87
15.79
5.90
-3.18
-10.83
-16.00
-17.22
-12.86
-1.78
15.94
38.64
63.31
86.36
104.69
116.59
122.02
122.34
119.57
115.69
112.24
110.18
109.91
111.27
113.39
114.71
113.38
107.87
97.67
83.51
67.03
49.90
33.00
16.06
-1.94
-21.98
-44.02
-66.79
-88.14
-105.97
-119.03
-127.18
-131.04
-131.34
-128.41
-122.14
-112.32
-99.26
-84.00
-68.25
-53.85
-42.28
-34.30
-30.06
-29.20
-31.22
-35.46
-41.25
-47.83
-54.39
-60.15
-64.52
-67.09
-67.87
-67.23
-65.93
-64.99
-65.45
-68.00
-72.66
-78.71
-84.74
-89.19
-90.92
-89.62
-86.02
-81.56
-77.88
-76.29
-77.40
-81.03
-86.37
-92.22
-97.18
-99.79
-98.76
-93.23
-83.06
-69.03
-52.82
-36.64
-22.65
-12.34
-6.22
-3.74
-3.76
-4.98
-6.38
-7.39
-7.77
-7.40
-6.12
-3.83
-0.62
2.95
5.84
6.86
5.08
0.33
-6.68
-14.63
-22.17
-28.56
-33.87
-38.82
-44.24
-50.43
-56.83
-62.19
-65.05
-64.39
-60.02
-52.69
-43.77
-34.77
-26.86
-20.62
-16.09
-12.96
-10.96
-9.99
-10.15
-11.49
-13.69
-16.06
-17.68
-17.77
-16.15
-13.31
-10.20
-7.82
-6.75
-6.90
-7.63
-8.10
-7.67
-6.13
-3.74
-1.10
1.17
2.61
3.10
2.88
2.48
2.63
4.08
7.45
12.96
20.31
28.67
36.91
43.94
49.01
51.97
53.11
52.93
51.83
50.04
47.65
44.78
41.71
38.89
36.74
35.40
34.69
34.13
33.21
31.68
29.55
27.14
24.80
22.77
21.03
19.31
17.26
14.53
10.96
6.64
1.86
-2.89
-7.01
-9.89
-10.99
-10.06
-7.22
-3.02
1.73
6.21
9.81
12.32
13.82
14.55
14.68
14.21
13.15
11.56
9.77
8.24
7.41
7.45
8.16
9.09
9.76
9.86
9.41
8.66
7.94
7.44
7.18
6.99
6.65
6.01
5.01
3.60
1.83
-0.22
-2.33
-4.09
-4.96
-4.41
-2.11
1.83
6.82
11.98
16.35
19.25
20.41
20.04
18.65
16.81
14.98
13.43
12.23
11.40
10.97
10.95
11.28
11.74
12.02
11.74
10.69
8.87
6.57
4.21
2.20
0.69
-0.41
-1.49
-2.97
-5.21
-8.29
-11.95
-15.65
-18.69
-20.39
-20.29
-18.36
-14.90
-10.50
-5.78
-1.28
2.66
5.86
8.31
10.04
11.20
11.90
12.33
12.62
12.90
13.21
13.56
13.93
14.23
14.34
14.05
13.23
11.87
10.17
8.46
7.06
6.09
5.42
4.72
3.62
1.85
-0.67
-3.76
-7.04
-9.99
-12.04
-12.68
-11.66
-9.07
-5.29
-0.92
3.50
7.58
11.15
14.15
16.57
18.38
19.58
20.25
20.61
20.97
21.51
22.25
22.96
23.32
23.04
22.09
20.61
18.91
17.32
16.03
15.05
14.26
13.41
12.27
10.63
8.35
5.36
1.75
-2.18
-5.92
-8.84
-10.35
-10.15
-8.32
-5.34
-1.81
1.71
4.96
7.93
10.77
13.55
16.14
18.18
19.32
19.37
18.50
17.16
15.94
15.32
15.44
16.04
16.60
16.58
15.64
13.78
11.34
8.84
6.82
5.65
5.54
6.49
8.26
10.43
12.36
13.31
12.69
10.28
6.43
2.03
-1.80
-4.05
-4.15
-2.17
1.29
5.34
9.12
11.99
13.60
13.86
12.86
10.85
8.22
5.47
3.14
1.66
1.22
1.67
2.56
3.30
3.39
2.59
1.00
-1.03
-3.10
-4.94
-6.46
-7.77
-9.10
-10.70
-12.76
-15.27
-18.03
-20.53
-22.11
-22.08
-20.06
-16.14
-10.92
-5.28
-0.07
4.19
7.34
9.49
10.76
11.13
10.49
8.81
6.24
3.24
0.41
-1.78
-3.11
-3.78
-4.17
-4.65
-5.46
-6.51
-7.65
-8.65
-9.41
-9.96
-10.50
-11.30
-12.65
-14.71
-17.55
-20.98
-24.62
-27.85
-29.97
-30.42
-28.88
-25.44
-20.49
-14.66
-8.55
-2.66
2.71
7.40
11.31
14.37
16.50
17.73
18.23
18.34
18.41
18.74
19.41
20.31
21.18
21.69
21.59
20.79
19.40
17.60
15.59
13.48
11.20
8.56
5.39
1.66
-2.49
-6.70
-10.53
-13.50
-15.23
-15.43
-13.92
-10.71
-6.01
-0.27
5.91
11.88
17.14
21.41
24.60
26.81
28.20
28.98
29.36
29.57
29.77
30.06
30.48
30.93
31.31
31.48
31.38
30.95
30.20
29.15
27.86
26.37
24.77
23.05
21.15
19.00
16.50
13.59
10.28
6.72
3.14
-0.12
-2.63
-4.01
-4.04
-2.76
-0.45
2.44
5.42
8.15
10.44
12.20
13.35
13.69
13.02
11.26
8.58
5.50
2.73
0.94
0.49
1.23
2.62
3.93
4.56
4.25
3.08
1.37
-0.57
-2.53
-4.48
-6.48
-8.65
-11.09
-13.88
-17.02
-20.35
-23.53
-26.00
-27.10
-26.30
-23.40
-18.68
-12.84
-6.82
-1.53
2.37
4.63
5.27
4.56
2.86
0.56
-1.88
-4.01
-5.42
-5.85
-5.29
-4.09
-2.84
-2.18
-2.59
-4.11
-6.40
-8.82
-10.77
-11.96
-12.58
-13.16
-14.34
-16.58
-19.83
-23.58
-26.99
-29.22
-29.80
-28.66
-26.09
-22.55
-18.42
-13.99
-9.45
-5.00
-0.89
2.74
5.89
8.65
11.03
12.67
12.99
11.40
7.92
3.38
-0.70
-2.77
-2.08
0.95
4.94
8.25
9.80
9.40
7.68
5.43
3.12
0.67
-2.32
-6.13
-10.59
-14.98
-18.35
-19.86
-19.09
-16.18
-11.78
-6.71
-1.76
2.53
5.95
8.50
10.34
11.55
12.19
12.22
11.67
10.68
9.46
8.33
7.52
7.13
7.03
6.96
6.62
5.82
4.55
3.06
1.62
0.51
-0.17
-0.54
-0.86
-1.51
-2.73
-4.61
-6.95
-9.28
-11.01
-11.55
-10.51
-7.84
-3.81
1.06
6.15
10.89
14.94
18.12
20.49
22.17
23.40
24.41
25.42
26.55
27.76
28.85
29.53
29.50
28.60
26.85
24.38
21.45
18.28
15.01
11.76
8.60
5.55
2.57
-0.44
-3.60
-6.92
-10.23
-13.15
-15.18
-15.91
-15.17
-13.12
-10.18
-6.88
-3.73
-1.12
0.73
1.69
1.74
0.98
-0.34
-1.87
-3.22
-4.10
-4.45
-4.43
-4.36
-4.57
-5.24
-6.33
-7.67
-8.97
-10.03
-10.86
-11.69
-12.89
-14.85
-17.75
-21.47
-25.59
-29.42
-32.25
-33.53
-32.97
-30.66
-26.96
-22.42
-17.61
-13.04
-9.03
-5.73
-3.11
-1.06
0.56
1.89
3.04
4.11
5.14
6.12
6.93
7.39
7.26
6.40
4.79
2.61
0.21
-2.10
-4.12
-5.90
-7.73
-9.96
-12.91
-16.55
-20.56
-24.33
-27.12
-28.31
-27.57
-24.89
-20.63
-15.35
-9.75
-4.46
0.08
3.61
6.09
7.64
8.42
8.66
8.61
8.52
8.62
9.03
9.69
10.40
10.84
10.71
9.87
8.36
6.42
4.36
2.45
0.83
-0.58
-1.95
-3.51
-5.45
-7.82
-10.53
-13.32
-15.82
-17.50
-17.92
-16.72
-13.84
-9.54
-4.32
1.17
6.42
11.08
15.02
18.24
20.74
22.51
23.53
23.82
23.47
22.69
21.73
20.81
20.03
19.33
18.54
17.46
16.01
14.23
12.29
10.44
8.89
7.72
6.88
6.19
5.46
4.51
3.19
1.40
-0.91
-3.69
-6.72
-9.64
-11.97
-13.23
-13.10
-11.51
-8.66
-4.93
-0.81
3.36
7.39
11.27
15.03
18.69
22.14
25.22
27.81
29.87
31.51
32.93
34.24
35.46
36.40
36.84
36.53
35.38
33.48
31.02
28.16
25.02
21.63
18.03
14.36
10.86
7.75
5.12
2.84
0.56
-2.12
-5.41
-9.21
-13.08
-16.41
-18.59
-19.27
-18.39
-16.14
-12.88
-9.06
-5.19
-1.77
0.78
2.18
2.36
1.46
-0.18
-2.16
-4.08
-5.70
-6.89
-7.71
-8.29
-8.81
-9.45
-10.31
-11.44
-12.80
-14.32
-15.92
-17.54
-19.12
-20.60
-21.94
-23.11
-24.16
-25.20
-26.37
-27.76
-29.32
-30.77
-31.65
-31.47
-29.86
-26.79
-22.57
-17.76
-12.98
-8.68
-5.06
-2.10
0.32
2.31
3.87
4.96
5.53
5.69
5.65
5.71
6.06
6.74
7.56
8.18
8.29
7.69
6.37
4.49
2.31
0.08
-2.07
-4.06
-5.98
-7.87
-9.82
-11.87
-14.05
-16.41
-18.87
-21.31
-23.40
-24.70
-24.77
-23.24
-20.09
-15.61
-10.33
-4.89
0.19
4.58
8.17
10.95
12.94
14.10
14.43
14.05
13.17
12.18
11.44
11.16
11.30
11.59
11.64
11.19
10.17
8.76
7.26
5.93
4.86
3.97
3.04
1.86
0.27
-1.80
-4.37
-7.39
-10.70
-14.02
-16.92
-18.90
-19.57
-18.71
-16.40
-12.97
-8.92
-4.77
-0.90
2.42
5.12
7.24
8.83
9.96
10.67
11.01
11.06
10.97
10.93
11.15
11.80
12.94
14.50
16.29
18.03
19.41
20.24
20.45
20.11
19.39
18.44
17.35
16.09
14.50
12.46
9.91
7.02
4.16
1.82
0.46
0.39
1.59
3.78
6.50
9.29
11.78
13.77
15.20
16.09
16.47
16.37
15.82
14.92
13.82
12.75
11.92
11.41
11.16
10.94
10.44
9.45
7.88
5.87
3.66
1.51
-0.44
-2.20
-3.94
-5.89
-8.19
-10.85
-13.71
-16.48
-18.75
-20.15
-20.40
-19.36
-17.12
-13.90
-10.09
-6.13
-2.42
0.74
3.10
4.56
5.07
4.65
3.45
1.71
-0.21
-1.90
-3.05
-3.48
-3.27
-2.70
-2.15
-1.98
-2.36
-3.26
-4.41
-5.51
-6.38
-7.06
-7.76
-8.79
-10.34
-12.44
-14.90
-17.38
-19.52
-20.92
-21.24
-20.26
-17.94
-14.51
-10.37
-6.06
-1.97
1.73
5.13
8.45
11.83
15.09
17.73
19.02
18.30
15.29
10.24
3.94
-2.62
-8.50
-13.14
-16.45
-18.69
-20.22
-21.28
-22.02
-22.47
-22.79
-23.26
-24.32
-26.32
-29.40
-33.28
-37.29
-40.61
-42.53
-42.78
-41.55
-39.41
-36.93
-34.49
-32.09
-29.53
-26.64
-23.45
-20.26
-17.50
-15.49
-14.32
-13.75
-13.41
-12.88
-11.94
-10.59
-9.06
-7.67
-6.73
-6.32
-6.37
-6.60
-6.66
-6.29
-5.41
-4.16
-2.88
-1.99
-1.84
-2.50
-3.79
-5.19
-6.08
-5.88
-4.27
-1.27
2.78
7.35
11.88
15.97
19.39
22.10
24.17
25.72
26.81
27.46
27.74
27.74
27.71
27.98
28.83
30.34
32.27
34.16
35.53
36.01
35.61
34.57
33.24
31.84
30.40
28.76
26.79
24.45
21.83
19.02
16.09
13.01
9.86
6.85
4.40
2.99
3.02
4.55
7.30
10.66
13.97
16.69
18.53
19.45
19.57
19.01
17.90
16.33
14.46
12.48
10.66
9.24
8.31
7.78
7.42
6.88
5.89
4.35
2.31
-0.02
-2.44
-4.83
-7.19
-9.66
-12.38
-15.50
-19.03
-22.89
-26.84
-30.47
-33.27
-34.68
-34.38
-32.29
-28.74
-24.32
-19.72
-15.55
-12.17
-9.72
-8.16
-7.38
-7.24
-7.55
-8.05
-8.40
-8.23
-7.34
-5.73
-3.69
-1.69
-0.25
0.31
-0.06
-1.16
-2.62
-4.17
-5.67
-7.21
-8.99
-11.19
-13.86
-16.95
-20.20
-23.29
-25.78
-27.27
-27.40
-26.00
-23.18
-19.23
-14.63
-9.84
-5.27
-1.13
2.46
5.44
7.76
9.36
10.21
10.45
10.32
10.15
10.19
10.47
10.81
10.90
10.42
9.24
7.45
5.31
3.18
1.30
-0.22
-1.50
-2.74
-4.22
-6.12
-8.55
-11.45
-14.58
-17.59
-20.01
-21.41
-21.44
-19.89
-16.86
-12.63
-7.71
-2.70
1.88
5.69
8.61
10.72
12.14
12.96
13.25
13.05
12.50
11.85
11.43
11.45
11.92
12.59
13.08
13.07
12.42
11.23
9.73
8.18
6.72
5.34
3.93
2.37
0.50
-1.77
-4.48
-7.60
-10.91
-14.04
-16.44
-17.52
-16.88
-14.45
-10.54
-5.74
-0.69
4.11
8.39
12.08
15.22
17.81
19.82
21.19
21.99
22.43
22.84
23.52
24.68
26.31
28.20
30.03
31.45
32.20
32.18
31.50
30.40
29.10
27.71
26.11
24.07
21.27
17.54
12.90
7.63
2.13
-3.02
-7.31
-10.29
-11.65
-11.34
-9.52
-6.53
-2.86
1.00
4.63
7.76
10.19
11.87
12.78
13.02
12.74
12.18
11.64
11.43
11.72
12.51
13.59
14.55
14.94
14.37
12.65
9.85
6.28
2.34
-1.60
-5.30
-8.73
-12.06
-15.52
-19.24
-23.14
-26.84
-29.70
-31.07
-30.43
-27.62
-22.86
-16.72
-9.93
-3.27
2.55
6.97
9.57
10.10
8.63
5.49
1.28
-3.23
-7.32
-10.49
-12.56
-13.68
-14.19
-14.43
-14.64
-14.82
-14.87
-14.74
-14.50
-14.41
-14.81
-15.90
-17.73
-20.11
-22.74
-25.29
-27.47
-29.03
-29.66
-29.02
-26.82
-22.92
-17.49
-10.95
-3.94
2.93
9.11
14.26
18.20
20.85
22.29
22.71
22.40
21.77
21.24
21.18
21.70
22.63
23.41
23.31
21.69
18.20
13.04
6.84
0.41
-5.57
-10.81
-15.46
-19.90
-24.43
-29.06
-33.37
-36.71
-38.48
-38.33
-36.32
-32.85
-28.54
-23.98
-19.69
-16.01
-13.12
-11.08
-9.87
-9.37
-9.34
-9.46
-9.43
-9.01
-8.17
-7.04
-5.89
-4.99
-4.49
-4.45
-4.76
-5.24
-5.77
-6.21
-6.65
-7.21
-8.19
-9.86
-12.36
-15.55
-18.90
-21.61
-22.79
-21.77
-18.42
-13.14
-6.75
-0.20
5.76
10.74
14.71
17.86
20.40
22.46
24.06
25.21
25.97
26.49
26.89
27.17
27.25
26.91
25.98
24.39
22.26
19.82
17.37
15.13
13.17
11.35
9.46
7.22
4.46
1.22
-2.18
-5.25
-7.41
-8.15
-7.17
-4.46
-0.32
4.73
9.99
14.73
18.36
20.51
21.13
20.39
18.66
16.33
13.80
11.36
9.29
7.77
6.87
6.50
6.48
6.57
6.49
6.04
5.10
3.59
1.47
-1.27
-4.62
-8.48
-12.75
-17.18
-21.43
-25.00
-27.29
-27.75
-26.02
-22.14
-16.56
-9.99
-3.32
2.73
7.61
11.09
13.15
13.98
13.87
13.20
12.38
11.74
11.46
11.49
11.56
11.34
10.54
9.05
7.03
4.79
2.71
1.05
-0.18
-1.15
-2.26
-3.95
-6.54
-10.10
-14.31
-18.46
-21.65
-22.99
-22.03
-18.92
-14.38
-9.47
-5.19
-2.19
-0.68
-0.54
-1.55
-3.47
-6.11
-9.15
-12.21
-14.81
-16.61
-17.50
-17.73
-17.75
-18.02
-18.82
-20.16
-21.87
-23.74
-25.63
-27.56
-29.62
-31.88
-34.32
-36.73
-38.68
-39.59
-38.83
-35.94
-30.78
-23.70
-15.43
-6.95
0.87
7.44
12.55
16.31
18.90
20.50
21.17
20.97
20.06
18.71
17.25
15.92
14.79
13.71
12.44
10.78
8.66
6.15
3.43
0.63
-2.21
-5.18
-8.46
-12.08
-15.89
-19.44
-22.04
-22.99
-21.77
-18.29
-12.95
-6.48
0.27
6.57
11.96
16.23
19.30
21.17
21.86
21.53
20.48
19.13
17.90
17.04
16.56
16.22
15.71
14.73
13.18
11.22
9.16
7.31
5.86
4.80
3.87
2.74
1.12
-1.09
-3.70
-6.28
-8.26
-9.07
-8.26
-5.65
-1.33
4.31
10.69
17.18
23.26
28.65
33.26
37.15
40.36
42.88
44.65
45.60
45.74
45.13
43.84
41.98
39.58
36.71
33.47
30.05
26.61
23.36
20.35
17.57
14.87
12.00
8.66
4.55
-0.43
-6.11
-11.96
-17.08
-20.56
-21.66
-20.18
-16.51
-11.49
-6.08
-1.13
2.90
5.77
7.44
7.95
7.34
5.79
3.65
1.40
-0.54
-1.88
-2.60
-2.93
-3.17
-3.60
-4.45
-5.77
-7.50
-9.49
-11.50
-13.33
-14.90
-16.33
-17.92
-20.00
-22.68
-25.73
-28.56
-30.43
-30.70
-29.12
-25.84
-21.41
-16.45
-11.60
-7.28
-3.72
-1.06
0.65
1.39
1.27
0.53
-0.46
-1.26
-1.51
-1.06
-0.07
1.18
2.24
2.79
2.64
1.81
0.41
-1.40
-3.55
-6.08
-9.05
-12.52
-16.41
-20.46
-24.28
-27.32
-29.01
-28.87
-26.66
-22.45
-16.69
-10.04
-3.25
3.05
8.48
12.85
16.14
18.42
19.70
20.06
19.65
18.73
17.59
16.46
15.45
14.51
13.50
12.28
10.79
9.05
7.11
5.02
2.77
0.33
-2.43
-5.65
-9.43
-13.78
-18.46
-22.95
-26.55
-28.49
-28.20
-25.52
-20.79
-14.66
-7.96
-1.40
4.56
9.70
13.96
17.33
19.73
21.14
21.65
21.51
21.12
20.87
20.97
21.40
21.83
21.92
21.36
20.12
18.36
16.38
14.37
12.37
10.18
7.52
4.09
-0.22
-5.31
-10.87
-16.35
-21.13
-24.56
-26.09
-25.46
-22.70
-18.18
-12.53
-6.46
-0.56
4.68
9.02
12.29
14.48
15.63
15.91
15.64
15.25
15.14
15.58
16.53
17.70
18.67
19.10
18.82
17.91
16.58
15.11
13.62
12.10
10.37
8.22
5.42
1.85
-2.51
-7.53
-12.87
-17.98
-22.10
-24.40
-24.28
-21.56
-16.57
-10.11
-3.16
3.42
9.09
13.65
17.16
19.73
21.43
22.33
22.60
22.54
22.51
22.84
23.64
24.79
25.94
26.71
26.81
26.12
24.73
22.84
20.67
18.35
15.88
13.12
9.85
5.85
1.05
-4.42
-10.17
-15.59
-19.94
-22.56
-23.01
-21.24
-17.54
-12.58
-7.11
-1.86
2.65
6.13
8.49
9.76
10.04
9.50
8.38
7.05
5.89
5.15
4.91
4.97
4.98
4.55
3.47
1.73
-0.54
-3.07
-5.65
-8.15
-10.59
-13.08
-15.87
-19.19
-23.19
-27.80
-32.61
-36.98
-40.08
-41.13
-39.72
-35.90
-30.20
-23.47
-16.64
-10.52
-5.62
-2.22
-0.32
0.19
-0.41
-1.73
-3.30
-4.62
-5.32
-5.26
-4.54
-3.54
-2.75
-2.62
-3.47
-5.37
-8.12
-11.35
-14.61
-17.57
-20.11
-22.43
-24.88
-27.79
-31.23
-34.82
-37.78
-39.18
-38.19
-34.44
-28.12
-19.99
-11.06
-2.36
5.36
11.65
16.36
19.49
21.13
21.47
20.84
19.67
18.45
17.51
16.95
16.60
16.17
15.38
14.13
12.46
10.48
8.33
6.05
3.63
1.06
-1.71
-4.78
-8.26
-12.24
-16.64
-21.13
-25.05
-27.62
-28.15
-26.28
-22.14
-16.30
-9.59
-2.83
3.32
8.48
12.50
15.38
17.21
18.07
18.08
17.41
16.25
14.82
13.33
11.96
10.84
9.99
9.35
8.79
8.15
7.36
6.36
5.12
3.55
1.50
-1.13
-4.25
-7.52
-10.33
-12.05
-12.25
-10.88
-8.32
-5.15
-2.01
0.69
2.82
4.50
5.94
7.32
8.66
9.84
10.69
11.13
11.33
11.75
12.95
15.44
19.35
24.37
29.80
34.68
38.13
39.52
38.63
35.64
31.07
25.61
20.02
14.90
10.59
7.17
4.46
2.11
-0.25
-2.85
-5.68
-8.39
-10.38
-10.97
-9.67
-6.39
-1.50
4.30
10.24
15.68
20.23
23.71
26.10
27.43
27.83
27.50
26.79
26.06
25.50
25.09
24.53
23.44
21.49
18.55
14.72
10.26
5.43
0.41
-4.70
-9.87
-15.00
-20.00
-24.75
-29.12
-33.00
-36.19
-38.32
-38.88
-37.36
-33.52
-27.54
-20.07
-12.06
-4.49
1.91
6.79
10.14
12.19
13.20
13.46
13.27
12.94
12.79
13.03
13.74
14.72
15.58
15.90
15.32
13.72
11.23
8.10
4.55
0.73
-3.41
-7.94
-12.96
-18.39
-23.98
-29.35
-33.94
-37.18
-38.52
-37.57
-34.26
-28.98
-22.46
-15.64
-9.40
-4.39
-0.86
1.24
2.14
2.07
1.31
0.14
-1.09
-2.03
-2.43
-2.21
-1.58
-0.90
-0.55
-0.77
-1.62
-3.02
-4.87
-7.17
-10.03
-13.59
-17.88
-22.70
-27.60
-31.96
-35.15
-36.59
-35.93
-33.10
-28.24
-21.75
-14.20
-6.22
1.55
8.52
14.28
18.53
21.17
22.27
22.11
21.09
19.62
18.03
16.53
15.14
13.74
12.20
10.41
8.30
5.90
3.31
0.66
-1.92
-4.31
-6.54
-8.80
-11.35
-14.41
-18.00
-21.92
-25.67
-28.60
-30.06
-29.52
-26.73
-21.78
-15.15
-7.57
0.16
7.35
13.53
18.47
22.08
24.36
25.33
25.15
24.10
22.62
21.17
20.08
19.45
19.15
18.88
18.32
17.27
15.65
13.55
11.16
8.71
6.40
4.34
2.52
0.81
-1.03
-3.18
-5.82
-8.98
-12.48
-15.98
-18.90
-20.64
-20.63
-18.58
-14.57
-9.07
-2.72
3.79
9.93
15.39
20.06
23.92
26.96
29.12
30.40
30.83
30.65
30.20
29.88
29.95
30.43
31.08
31.47
31.18
30.01
28.01
25.47
22.76
20.13
17.65
15.20
12.55
9.50
5.94
1.92
-2.33
-6.40
-9.77
-11.93
-12.53
-11.43
-8.84
-5.19
-1.03
3.12
6.80
9.71
11.66
12.53
12.33
11.21
9.49
7.60
6.00
4.98
4.61
4.73
4.93
4.81
4.10
2.75
0.99
-0.85
-2.51
-3.92
-5.24
-6.80
-8.93
-11.83
-15.44
-19.48
-23.50
-26.95
-29.27
-29.98
-28.81
-25.70
-20.97
-15.17
-9.06
-3.40
1.25
4.54
6.43
7.08
6.73
5.70
4.29
2.82
1.56
0.72
0.36
0.34
0.39
0.16
-0.62
-2.08
-4.16
-6.73
-9.64
-12.82
-16.31
-20.18
-24.47
-29.12
-33.88
-38.29
-41.75
-43.58
-43.30
-40.71
-36.05
-29.96
-23.23
-16.61
-10.61
-5.43
-1.10
2.38
4.98
6.65
7.44
7.63
7.70
8.14
9.21
10.82
12.56
13.86
14.23
13.49
11.81
9.58
7.19
4.86
2.55
0.05
-2.90
-6.40
-10.33
-14.37
-18.13
-21.15
-23.05
-23.56
-22.55
-20.07
-16.38
-11.86
-7.01
-2.32
1.79
5.07
7.41
8.84
9.57
9.85
9.99
10.17
10.49
10.93
11.42
11.86
12.19
12.35
12.24
11.77
10.89
9.65
8.14
6.45
4.57
2.35
-0.44
-3.91
-7.95
-12.16
-15.91
-18.55
-19.59
-18.87
-16.53
-12.98
-8.72
-4.16
0.40
4.79
8.91
12.60
15.64
17.88
19.20
19.71
19.64
19.26
18.77
18.21
17.50
16.50
15.17
13.63
12.16
11.09
10.68
10.94
11.60
12.12
11.82
10.13
6.70
1.62
-4.61
-11.17
-17.01
-21.12
-22.79
-21.78
-18.38
-13.24
-7.22
-1.01
4.94
10.44
15.47
19.99
23.89
27.08
29.52
31.32
32.63
33.62
34.31
34.63
34.43
33.62
32.24
30.41
28.36
26.26
24.21
22.17
19.99
17.46
14.37
10.66
6.40
1.80
-2.83
-7.20
-11.05
-14.19
-16.50
-17.89
-18.34
-17.88
-16.65
-14.87
-12.84
-10.85
-9.18
-8.07
-7.72
-8.25
-9.68
-11.91
-14.63
-17.45
-19.88
-21.54
-22.27
-22.22
-21.75
-21.38
-21.54
-22.45
-24.10
-26.33
-28.84
-31.34
-33.62
-35.55
-37.21
-38.81
-40.68
-43.03
-45.80
-48.49
-50.25
-50.08
-47.24
-41.50
-33.31
-23.71
-13.94
-5.19
1.71
6.36
8.82
9.51
9.10
8.40
8.17
8.93
10.75
13.10
14.97
15.11
12.58
7.16
-0.44
-8.75
-16.14
-21.38
-24.07
-24.65
-24.01
-23.09
-22.48
-22.37
-22.70
-23.31
-24.03
-24.63
-24.71
-23.83
-21.52
-17.59
-12.22
-5.99
0.30
5.81
9.93
12.33
13.08
12.57
11.37
10.08
9.13
8.68
8.67
8.88
9.09
9.16
9.05
8.81
8.42
7.81
6.85
5.46
3.63
1.46
-0.89
-3.26
-5.52
-7.48
-8.87
-9.31
-8.45
-6.11
-2.35
2.49
7.96
13.61
19.09
24.12
28.50
32.04
34.58
36.09
36.75
36.89
36.90
37.13
37.68
38.44
39.08
39.27
38.76
37.51
35.69
33.66
31.72
30.08
28.68
27.25
25.45
22.94
19.52
15.21
10.17
4.71
-0.77
-5.82
-9.93
-12.68
-13.80
-13.30
-11.46
-8.78
-5.82
-3.09
-0.91
0.56
1.30
1.40
0.97
0.26
-0.49
-1.00
-1.06
-0.62
0.18
1.14
1.96
2.42
2.38
1.85
0.91
-0.31
-1.69
-3.17
-4.77
-6.57
-8.73
-11.26
-14.06
-16.82
-19.06
-20.29
-20.15
-18.50
-15.54
-11.68
-7.49
-3.56
-0.37
1.74
2.62
2.26
0.85
-1.33
-3.89
-6.41
-8.57
-10.15
-11.17
-11.80
-12.36
-13.17
-14.41
-16.06
-17.87
-19.50
-20.62
-21.10
-21.05
-20.76
-20.67
-21.07
-22.07
-23.45
-24.73
-25.29
-24.57
-22.25
-18.35
-13.23
-7.43
-1.58
3.88
8.61
12.51
15.53
17.67
18.97
19.50
19.40
18.91
18.21
17.42
16.52
15.38
13.87
11.92
9.61
7.13
4.69
2.42
0.33
-1.71
-3.87
-6.32
-9.10
-12.19
-15.40
-18.46
-21.04
-22.80
-23.46
-22.81
-20.78
-17.47
-13.15
-8.19
-3.01
1.99
6.45
10.10
12.76
14.38
15.04
14.95
14.42
13.79
13.36
13.26
13.50
13.95
14.34
14.42
13.95
12.90
11.44
9.99
8.96
8.56
8.54
8.27
6.86
3.64
-1.59
-8.39
-15.80
-22.70
-28.15
-31.62
-33.02
-32.55
-30.54
-27.34
-23.33
-18.95
-14.71
-11.18
-8.82
-7.87
-8.26
-9.62
-11.39
-12.90
-13.64
-13.32
-11.97
-9.85
-7.33
-4.76
-2.32
-0.00
2.24
4.47
6.61
8.46
9.80
10.47
10.47
10.02
9.51
9.45
10.30
12.40
15.84
20.44
25.75
31.16
36.09
40.08
42.89
44.48
44.92
44.39
43.04
41.03
38.50
35.70
32.88
30.33
28.22
26.54
25.03
23.35
21.14
18.30
14.97
11.49
8.25
5.48
3.16
1.02
-1.31
-4.06
-7.21
-10.38
-13.04
-14.62
-14.77
-13.47
-11.03
-7.95
-4.74
-1.80
0.59
2.23
2.98
2.77
1.61
-0.35
-2.81
-5.42
-7.79
-9.63
-10.78
-11.25
-11.24
-11.07
-11.13
-11.67
-12.79
-14.36
-16.09
-17.81
-19.46
-21.23
-23.36
-25.95
-28.78
-31.29
-32.79
-32.65
-30.62
-26.90
-22.07
-16.88
-12.06
-8.13
-5.40
-3.97
-3.76
-4.45
-5.50
-6.23
-5.93
-4.22
-1.21
2.46
5.86
8.17
8.89
8.08
6.21
3.88
1.54
-0.66
-2.86
-5.28
-8.06
-11.11
-14.14
-16.78
-18.66
-19.55
-19.29
-17.92
-15.51
-12.19
-8.21
-3.90
0.35
4.14
7.13
9.09
9.98
9.96
9.37
8.61
8.06
7.93
8.16
8.52
8.66
8.33
7.42
6.04
4.43
2.83
1.31
-0.15
-1.73
-3.58
-5.77
-8.25
-10.81
-13.15
-14.90
-15.77
-15.53
-14.09
-11.53
-8.04
-3.87
0.65
5.22
9.54
13.36
16.48
18.83
20.38
21.19
21.37
21.02
20.28
19.28
18.14
16.91
15.60
14.19
12.65
11.03
9.46
8.07
6.94
6.07
5.27
4.26
2.81
0.79
-1.67
-4.27
-6.52
-7.89
-8.02
-6.78
-4.33
-1.07
2.57
6.23
9.67
12.81
15.59
17.95
19.82
21.18
22.07
22.62
22.98
23.25
23.45
23.45
23.15
22.44
21.29
19.73
17.87
15.85
13.83
11.90
10.09
8.29
6.28
3.77
0.59
-3.24
-7.43
-11.50
-14.95
-17.35
-18.44
-18.20
-16.77
-14.45
-11.61
-8.64
-5.91
-3.68
-2.08
-1.15
-0.77
-0.87
-1.30
-1.95
-2.66
-3.28
-3.66
-3.80
-3.81
-3.94
-4.45
-5.54
-7.25
-9.43
-11.86
-14.34
-16.73
-19.00
-21.12
-23.13
-25.07
-27.02
-29.04
-31.12
-33.10
-34.61
-35.15
-34.23
-31.64
-27.46
-22.18
-16.43
-10.83
-5.83
-1.64
1.70
4.24
6.05
7.13
7.49
7.19
6.45
5.56
4.85
4.50
4.51
4.63
4.51
3.88
2.65
1.07
-0.52
-1.77
-2.58
-3.10
-3.68
-4.71
-6.43
-8.89
-11.94
-15.30
-18.65
-21.63
-23.92
-25.20
-25.23
-23.93
-21.39
-17.94
-13.98
-9.86
-5.82
-1.95
1.77
5.33
8.64
11.47
13.57
14.76
15.04
14.63
13.90
13.25
12.90
12.86
12.92
12.80
12.29
11.37
10.23
9.14
8.30
7.77
7.45
7.15
6.66
5.83
4.53
2.63
0.06
-3.12
-6.62
-9.84
-12.05
-12.57
-11.05
-7.59
-2.64
3.12
9.08
14.75
19.89
24.37
28.12
31.08
33.24
34.62
35.36
35.65
35.73
35.76
35.81
35.84
35.67
35.05
33.81
31.86
29.28
26.26
23.04
19.78
16.55
13.30
9.96
6.43
2.66
-1.37
-5.67
-10.14
-14.57
-18.55
-21.53
-22.96
-22.43
-19.91
-15.72
-10.53
-5.09
-0.09
4.02
7.04
8.94
9.80
9.76
8.99
7.73
6.29
4.96
3.95
3.32
2.94
2.53
1.83
0.68
-0.93
-2.82
-4.77
-6.59
-8.25
-9.82
-11.51
-13.48
-15.87
-18.72
-22.01
-25.56
-29.03
-31.91
-33.59
-33.59
-31.70
-28.09
-23.30
-18.03
-12.98
-8.67
-5.38
-3.23
-2.22
-2.19
-2.87
-3.87
-4.71
-5.02
-4.58
-3.47
-1.94
-0.37
0.87
1.50
1.40
0.59
-0.78
-2.52
-4.46
-6.51
-8.73
-11.27
-14.28
-17.89
-22.02
-26.34
-30.27
-33.09
-34.12
-32.95
-29.56
-24.39
-18.10
-11.46
-5.08
0.63
5.49
9.39
12.28
14.10
14.93
14.96
14.52
14.00
13.71
13.75
14.01
14.18
13.99
13.25
11.97
10.26
8.33
6.31
4.27
2.20
-0.02
-2.55
-5.47
-8.83
-12.52
-16.27
-19.60
-21.99
-22.90
-22.02
-19.31
-15.11
-9.96
-4.50
0.76
5.47
9.48
12.70
15.08
16.54
17.06
16.78
15.97
15.03
14.31
13.97
13.95
13.98
13.80
13.18
12.10
10.65
9.03
7.41
5.93
4.59
3.33
1.96
0.28
-1.92
-4.73
-8.07
-11.64
-14.96
-17.42
-18.43
-17.56
-14.76
-10.29
-4.75
1.18
6.85
11.85
16.01
19.36
22.02
24.08
25.61
26.65
27.27
27.63
27.89
28.18
28.50
28.73
28.66
28.05
26.78
24.84
22.32
19.40
16.25
13.01
9.70
6.25
2.54
-1.54
-5.96
-10.43
-14.45
-17.37
-18.63
-17.91
-15.32
-11.25
-6.31
-1.11
3.75
7.80
10.65
12.05
11.98
10.63
8.47
6.11
4.13
2.89
2.47
2.64
3.00
3.17
2.83
1.87
0.35
-1.62
-3.88
-6.27
-8.76
-11.36
-14.14
-17.24
-20.75
-24.59
-28.46
-31.83
-34.05
-34.51
-32.85
-29.09
-23.64
-17.17
-10.47
-4.33
0.60
3.91
5.53
5.73
5.09
4.37
4.16
4.79
6.17
7.90
9.52
10.70
11.39
11.83
12.36
13.26
14.66
16.41
18.19
19.39
19.30
17.19
12.60
5.51
-3.35
-12.60
-20.44
-25.12
-25.53
-21.57
-14.17
-5.04
3.90
11.06
15.49
16.85
15.21
10.80
3.97
-4.51
-13.23
-20.20
-23.34
-21.42
-14.78
-5.46
3.53
9.28
10.21
6.42
-0.62
-9.00
-17.32
-25.07
-32.45
-39.83
-47.14
-53.76
-58.70
-61.03
-60.24
-56.36
-49.94
-41.73
-32.50
-22.90
-13.48
-4.74
2.86
8.87
13.03
15.27
15.83
15.20
14.04
13.03
12.73
13.48
15.31
17.96
20.96
23.82
26.05
27.40
27.87
27.56
26.67
25.30
23.47
21.08
18.13
14.78
11.45
8.81
7.58
8.27
11.00
15.35
20.50
25.48
29.44
31.89
32.72
32.11
30.40
27.94
25.12
22.26
19.66
17.54
15.94
14.76
13.76
12.67
11.24
9.36
7.06
4.49
1.79
-0.97
-3.78
-6.70
-9.84
-13.13
-16.33
-18.92
-20.20
-19.54
-16.63
-11.74
-5.69
0.45
5.67
9.40
11.52
12.25
11.84
10.38
7.82
4.12
-0.55
-5.71
-10.73
-15.08
-18.51
-21.11
-23.21
-25.10
-26.91
-28.58
-29.89
-30.74
-31.16
-31.43
-31.93
-33.03
-34.86
-37.24
-39.71
-41.63
-42.27
-41.05
-37.69
-32.25
-25.27
-17.52
-9.86
-2.91
3.08
8.23
12.74
16.73
20.11
22.56
23.84
23.96
23.16
21.83
20.22
18.36
16.11
13.35
10.24
7.25
5.04
4.16
4.80
6.64
8.93
10.75
11.20
9.63
5.81
-0.01
-7.00
-13.77
-18.73
-20.43
-18.09
-11.83
-2.66
7.89
18.28
27.40
34.73
40.25
44.22
46.94
48.66
49.54
49.76
49.49
48.94
48.22
47.32
46.03
44.06
41.12
37.15
32.41
27.46
23.07
19.83
17.99
17.27
16.91
15.95
13.52
9.17
3.02
-4.19
-11.26
-16.91
-19.99
-19.91
-16.76
-11.27
-4.57
2.11
7.80
11.93
14.32
15.13
14.69
13.37
11.57
9.67
7.93
6.52
5.42
4.45
3.36
1.90
-0.05
-2.48
-5.23
-8.16
-11.09
-13.95
-16.69
-19.33
-21.95
-24.72
-27.84
-31.46
-35.48
-39.49
-42.78
-44.51
-43.99
-40.96
-35.64
-28.72
-21.07
-13.52
-6.63
-0.68
4.20
7.93
10.43
11.69
11.84
11.26
10.42
9.82
9.67
9.88
10.12
9.98
9.14
7.54
5.30
2.58
-0.44
-3.59
-6.77
-9.86
-12.84
-15.75
-18.76
-22.02
-25.56
-29.12
-32.12
-33.87
-33.72
-31.35
-26.90
-20.92
-14.19
-7.44
-1.27
4.07
8.54
12.20
15.16
17.48
19.14
20.15
20.53
20.41
19.94
19.25
18.41
17.40
16.12
14.46
12.41
10.09
7.73
5.62
3.95
2.73
1.78
0.75
-0.65
-2.64
-5.26
-8.37
-11.69
-14.83
-17.35
-18.77
-18.68
-16.88
-13.38
-8.49
-2.70
3.37
9.20
14.38
18.66
21.91
24.11
25.35
25.79
25.72
25.44
25.25
25.32
25.68
26.19
26.64
26.81
26.63
26.11
25.34
24.44
23.44
22.33
21.06
19.57
17.78
15.61
12.96
9.73
5.84
1.40
-3.26
-7.59
-10.94
-12.80
-12.88
-11.33
-8.55
-5.09
-1.44
2.03
5.10
7.63
9.53
10.72
11.23
11.20
10.86
10.43
10.11
9.99
10.03
10.16
10.23
10.05
9.42
8.18
6.26
3.73
0.82
-2.17
-4.94
-7.31
-9.28
-11.05
-12.89
-15.08
-17.76
-20.80
-23.79
-26.17
-27.35
-26.90
-24.75
-21.19
-16.81
-12.29
-8.25
-5.10
-3.01
-2.01
-2.00
-2.76
-4.04
-5.50
-6.83
-7.77
-8.24
-8.32
-8.25
-8.35
-8.88
-10.02
-11.81
-14.13
-16.71
-19.24
-21.41
-23.08
-24.30
-25.37
-26.64
-28.35
-30.49
-32.73
-34.51
-35.20
-34.32
-31.66
-27.43
-22.11
-16.42
-11.05
-6.54
-3.09
-0.64
1.02
2.17
3.02
3.64
4.07
4.32
4.42
4.41
4.31
4.10
3.71
3.05
2.03
0.64
-1.04
-2.88
-4.71
-6.38
-7.93
-9.48
-11.27
-13.41
-15.86
-18.25
-20.07
-20.74
-19.88
-17.39
-13.47
-8.58
-3.28
1.91
6.58
10.40
13.27
15.16
16.20
16.59
16.55
16.31
16.01
15.76
15.62
15.60
15.74
16.02
16.42
16.84
17.10
17.00
16.40
15.25
13.66
11.87
10.08
8.44
6.91
5.42
3.98
2.77
2.12
2.38
3.71
5.89
8.35
10.44
11.67
11.93
11.50
10.84
10.26
9.79
9.16
8.04
6.25
3.83
0.98
-2.02
-5.07
-8.14
-11.21
-14.13
-16.56
-18.17
-18.72
-18.26
-17.15
-15.92
-15.09
-14.99
-15.65
-16.85
-18.17
-19.10
-19.19
-18.09
-15.66
-11.96
-7.29
-2.12
3.01
7.54
11.01
13.13
13.86
13.41
12.19
10.71
9.45
8.75
8.74
9.32
10.28
11.28
12.08
12.46
12.35
11.73
10.52
8.63
5.89
2.21
-2.27
-7.19
-11.98
-16.00
-18.72
-19.84
-19.32
-17.33
-14.22
-10.38
-6.30
-2.45
0.70
2.73
3.42
2.80
1.18
-0.90
-2.81
-4.07
-4.46
-4.09
-3.35
-2.72
-2.58
-3.14
-4.37
-6.08
-8.12
-10.33
-12.64
-15.00
-17.35
-19.62
-21.65
-23.26
-24.21
-24.26
-23.23
-21.06
-17.88
-14.01
-9.87
-5.90
-2.44
0.34
2.45
3.95
4.96
5.58
5.87
5.86
5.55
4.97
4.19
3.28
2.35
1.49
0.67
-0.17
-1.08
-2.09
-3.10
-4.03
-4.85
-5.67
-6.71
-8.18
-10.09
-12.12
-13.74
-14.37
-13.65
-11.64
-8.78
-5.70
-2.93
-0.74
0.93
2.34
3.79
5.34
6.90
8.31
9.51
10.59
11.81
13.38
15.30
17.35
19.17
20.49
21.27
