1574756032.00
64.000000
-0.00
-0.00
-0.00
-0.00
-0.00
-0.00
-0.00
-0.00
-0.00
-0.00
0.00
0.01
0.01
-0.00
-0.03
-0.05
-0.05
0.00
0.13
0.36
0.66
1.01
1.37
1.72
2.06
2.40
2.79
3.24
3.80
4.42
5.06
5.66
6.20
6.68
7.15
7.68
8.31
9.14
10.09
11.04
11.88
12.56
13.14
13.76
14.65
15.96
17.91
20.32
22.90
25.38
27.58
29.57
31.68
34.32
37.81
42.54
48.15
54.10
59.83
64.97
69.58
74.14
79.34
85.71
93.76
103.00
112.62
121.73
129.77
136.75
143.30
150.75
157.77
166.64
177.95
191.79
206.97
220.57
228.25
225.36
208.53
176.87
132.76
80.05
23.07
-34.94
-92.44
-149.16
-205.23
-260.37
-313.74
-363.87
-409.83
-450.91
-486.50
-515.74
-537.23
-549.22
-549.96
-538.37
-514.21
-478.67
-433.88
-382.45
-327.02
-269.84
-212.63
-156.66
-102.95
-52.37
-5.90
35.58
71.43
101.35
125.50
144.38
158.69
169.15
176.37
180.75
182.57
182.07
179.51
175.23
169.65
163.18
156.15
148.81
141.30
133.69
126.02
118.33
110.69
103.16
95.80
88.68
81.83
75.25
68.95
62.95
57.25
51.86
46.78
42.03
37.59
33.45
29.61
26.07
22.81
19.83
17.11
14.67
12.48
10.54
8.83
7.35
6.07
4.97
4.05
3.27
2.62
2.09
1.65
1.30
1.01
0.79
0.61
0.47
0.37
0.28
0.23
0.18
0.15
0.13
0.13
0.13
0.14
0.16
0.18
0.21
0.25
0.29
0.33
0.37
0.42
0.46
0.51
0.56
0.61
0.66
0.72
0.78
0.85
0.92
1.00
1.08
1.18
1.29
1.41
1.55
1.70
1.87
2.07
2.28
2.51
2.77
3.06
3.38
3.73
4.11
4.53
4.98
5.46
5.99
6.56
7.16
7.81
8.50
9.24
10.02
10.85
11.72
12.64
13.61
14.63
15.72
16.87
18.08
19.35
20.64
21.92
23.11
24.12
24.84
25.13
24.89
24.00
22.39
20.03
16.96
13.23
9.02
4.49
-0.13
-4.61
-8.73
-12.30
-15.18
-17.30
-18.68
-19.34
-19.41
-19.00
-18.20
-17.08
-15.74
-14.23
-12.62
-10.98
-9.31
-7.72
-6.19
-4.72
-3.24
-1.70
-0.06
1.66
3.44
5.25
6.96
8.53
10.04
11.61
13.38
15.43
17.71
20.12
22.58
24.72
26.49
28.01
29.59
31.53
33.96
36.78
39.71
42.50
44.49
45.53
45.90
46.10
46.68
47.87
49.46
50.91
51.65
50.58
47.34
42.14
35.47
27.75
18.84
7.72
-7.79
-25.72
-46.48
-70.78
-99.09
-131.03
-164.62
-196.22
-221.21
-235.46
-236.82
-226.74
-208.96
-188.07
-167.89
-150.26
-135.11
-121.28
-107.54
-93.26
-78.87
-64.85
-51.41
-38.53
-26.13
-14.33
-3.45
6.22
14.56
21.39
26.82
31.07
34.44
37.29
39.92
42.62
45.43
48.12
50.06
50.55
49.15
45.77
40.79
34.85
28.53
22.08
15.36
8.06
0.22
-7.53
-13.81
-16.92
-15.14
-7.16
7.73
29.57
57.54
89.88
123.82
155.94
182.93
202.59
214.52
220.23
222.28
223.03
223.38
222.49
218.29
208.67
192.69
171.16
146.43
121.61
99.72
82.95
72.49
68.51
70.38
76.84
86.02
95.61
103.16
106.53
104.54
97.33
86.35
73.93
62.40
53.41
47.40
43.73
41.20
38.65
35.39
31.37
26.89
22.26
17.57
12.69
7.34
1.37
-5.20
-12.27
-20.01
-28.94
-39.97
-53.88
-70.70
-89.39
-107.84
-123.54
-134.46
-139.86
-140.34
-137.53
-133.23
-128.83
-125.01
-121.93
-119.58
-118.04
-117.53
-118.18
-119.75
-121.46
-122.07
-120.21
-114.94
-106.23
-95.17
-83.58
-73.47
-66.18
-61.94
-59.87
-58.46
-56.16
-51.92
-45.31
-36.41
-25.59
-13.49
-0.86
11.28
21.81
29.72
34.29
35.29
32.97
28.10
21.81
15.39
10.01
6.37
4.51
3.76
3.07
1.43
-1.71
-6.22
-11.47
-16.62
-21.01
-24.38
-26.84
-28.61
-29.82
-30.33
-29.85
-27.98
-24.48
-19.44
-13.32
-7.11
-2.10
0.20
-1.51
-7.93
-18.82
-32.98
-48.62
-63.82
-76.98
-87.06
-93.57
-96.53
-96.41
-94.31
-91.87
-90.96
-93.19
-99.19
-108.40
-119.18
-129.41
-137.25
-141.68
-142.62
-140.44
-135.44
-127.62
-116.69
-102.57
-85.79
-67.54
-49.39
-32.51
-17.20
-2.79
11.99
28.07
45.41
62.64
77.49
87.78
92.51
92.59
90.57
89.82
92.99
101.08
112.81
125.20
134.68
138.35
134.88
124.84
110.44
95.06
82.41
75.68
76.92
86.30
102.23
121.86
142.02
159.99
174.54
186.10
196.19
206.34
217.18
227.98
236.59
240.19
236.14
223.05
201.27
172.51
138.96
102.58
64.99
27.83
-6.66
-36.16
-58.28
-71.56
-76.69
-76.70
-75.92
-77.87
-84.15
-94.17
-107.87
-125.01
-145.90
-171.89
-205.10
-246.70
-294.71
-344.37
-389.07
-426.10
-453.79
-471.11
-477.94
-475.13
-463.88
-443.57
-413.77
-373.78
-329.20
-285.19
-244.60
-209.49
-183.07
-169.47
-169.63
-182.17
-201.29
-226.13
-254.30
-281.32
-303.07
-317.71
-325.92
-327.86
-327.26
-285.55
-193.50
-74.65
33.04
106.99
148.73
160.38
162.00
164.74
173.09
180.85
182.97
184.57
189.48
199.82
215.73
238.69
267.86
301.34
329.41
342.79
337.05
313.82
280.17
245.81
221.39
212.37
219.34
235.11
252.25
266.87
278.67
289.27
299.78
310.86
321.36
330.71
338.16
345.00
354.13
367.65
385.16
403.15
416.50
419.57
408.52
381.75
340.36
287.50
226.84
161.98
96.42
33.99
-21.12
-64.81
-94.24
-108.86
-110.85
-104.47
-94.52
-85.25
-79.67
-80.14
-88.76
-107.26
-135.78
-171.24
-206.87
-233.25
-241.46
-226.54
-189.55
-137.26
-79.67
-26.53
15.15
42.00
53.52
51.03
37.00
15.14
-9.67
-32.11
-47.99
-56.00
-58.25
-59.19
-63.42
-73.44
-88.55
-105.40
-119.69
-128.12
-129.63
-125.47
-118.33
-111.19
-106.28
-104.56
-105.72
-108.45
-111.08
-112.25
-111.37
-108.85
-105.69
-102.98
-101.37
-100.82
-100.88
-101.04
-101.16
-101.37
-101.79
-102.07
-101.37
-98.86
-94.51
-89.38
-85.34
-84.03
-85.81
-89.39
-92.31
-92.15
-87.79
-79.83
-70.29
-61.66
-55.73
-52.92
-52.25
-51.79
-49.48
-43.89
-34.57
-22.14
-7.87
6.80
20.94
34.41
47.83
62.37
79.12
98.64
120.39
142.60
162.58
177.53
185.52
186.30
181.34
173.19
164.41
156.68
150.44
145.25
140.47
135.93
131.85
128.53
125.70
122.35
117.02
108.43
96.11
80.51
62.72
44.04
25.68
8.73
-5.70
-16.40
-22.33
-23.17
-19.75
-14.19
-9.39
-8.23
-12.48
-22.28
-36.08
-51.11
-64.02
-71.82
-72.55
-65.85
-53.13
-37.15
-21.44
-9.18
-2.41
-1.47
-5.11
-11.06
-16.86
-20.64
-21.47
-19.55
-15.85
-11.78
-8.72
-7.57
-8.60
-11.34
-14.95
-18.43
-21.01
-22.32
-22.46
-21.90
-21.40
-21.80
-23.77
-27.74
-33.89
-42.08
-51.80
-62.13
-71.71
-78.96
-82.49
-81.75
-77.37
-70.96
-64.47
-59.11
-54.74
-49.91
-42.67
-31.73
-17.24
-0.85
15.06
28.40
38.07
44.15
47.41
48.77
48.89
48.14
46.82
45.42
44.55
44.74
45.96
47.60
48.50
47.62
44.65
40.30
36.23
34.49
36.74
43.70
54.95
68.93
83.33
95.62
103.81
107.25
107.04
105.86
106.95
112.76
123.78
138.20
152.50
162.94
166.93
164.01
155.66
144.56
133.50
124.57
118.67
115.44
113.57
111.27
106.70
98.40
85.62
68.53
48.33
27.19
8.31
-4.72
-8.78
-2.57
12.75
33.65
55.04
71.89
80.25
78.50
67.51
49.98
29.30
8.47
-10.63
-27.33
-42.02
-55.88
-69.61
-83.18
-95.86
-107.16
-117.05
-125.85
-133.71
-140.22
-145.71
-150.12
-152.99
-154.13
-154.16
-154.26
-155.30
-157.10
-158.49
-160.12
-161.73
-161.64
-157.88
-150.16
-140.40
-131.67
-126.59
-126.18
-133.02
-146.23
-160.66
-169.33
-167.85
-156.29
-138.80
-121.54
-110.88
-116.49
-142.76
-186.10
-237.00
-285.51
-325.32
-355.09
-377.70
-366.63
-313.70
-233.98
-154.40
-92.31
-49.93
-21.43
-0.59
16.83
32.98
43.95
47.23
44.17
38.59
33.29
29.28
25.20
21.38
18.31
12.96
4.03
-6.99
-16.98
-24.27
-28.86
-32.13
-35.24
-38.68
-44.21
-51.81
-58.96
-61.29
-59.75
-54.86
-47.85
-39.74
-31.25
-23.68
-17.57
-12.41
-7.21
-1.54
5.04
12.30
20.03
28.09
36.15
44.10
52.22
60.75
69.73
79.34
89.48
99.97
110.57
121.04
131.11
140.57
149.22
157.06
164.59
172.30
180.62
189.76
199.69
210.50
222.65
237.05
254.72
276.18
300.43
324.63
344.67
356.44
357.26
346.58
325.81
297.58
264.77
230.22
196.97
168.41
147.90
137.44
136.59
142.05
148.70
151.68
148.31
138.65
124.49
107.43
87.57
63.36
33.12
-3.21
-43.25
-82.70
-117.05
-143.32
-160.77
-170.56
-174.59
-174.30
-170.06
-161.01
-145.66
-122.47
-90.68
-51.19
-7.19
36.13
72.86
98.06
109.42
107.60
95.69
77.97
58.52
40.66
26.61
17.12
10.96
4.84
-5.71
-24.56
-52.74
-87.46
-122.73
-151.60
-169.02
-173.66
-167.86
-156.27
-143.84
-134.29
-129.45
-129.10
-131.36
-133.13
-130.17
-117.74
-91.85
-50.80
3.42
64.26
121.67
164.37
183.12
173.75
138.63
85.99
27.48
-25.14
-63.06
-82.34
-84.31
-74.72
-61.35
-51.54
-49.89
-57.07
-70.30
-85.20
-97.95
-106.82
-112.42
-116.65
-121.45
-127.85
-135.52
-142.94
-147.64
-146.28
-135.49
-112.82
-77.91
-33.38
15.44
61.92
100.01
125.92
138.78
140.23
133.30
121.32
107.15
92.98
80.37
70.26
63.08
58.60
56.11
54.58
53.11
51.48
50.50
51.89
57.43
67.70
81.17
94.25
102.70
103.66
97.14
86.46
76.69
72.58
76.37
87.03
100.98
113.63
121.14
121.56
115.04
103.32
88.89
74.14
60.76
49.63
41.04
34.96
31.53
30.82
32.61
36.05
39.48
40.76
37.86
29.55
15.94
-1.46
-20.18
-37.47
-51.14
-60.14
-64.76
-66.05
-65.20
-62.73
-58.32
-51.25
-41.11
-28.58
-15.52
-4.41
2.66
4.72
2.26
-3.16
-9.59
-15.28
-18.77
-19.10
-15.81
-9.37
-1.55
4.85
6.88
2.42
-8.78
-24.99
-43.34
-60.99
-76.28
-89.08
-100.45
-111.95
-124.84
-139.21
-153.59
-165.11
-170.33
-167.10
-156.09
-141.37
-128.97
-124.07
-127.99
-137.26
-145.20
-145.32
-134.44
-114.13
-89.13
-64.45
-42.47
-22.45
-2.19
19.30
40.36
57.12
65.77
65.23
58.12
49.72
45.14
46.62
52.35
57.41
56.49
46.94
30.50
12.74
0.65
-0.69
9.65
28.23
49.16
67.07
79.47
87.10
92.41
97.21
101.34
102.96
100.53
94.54
88.01
84.92
87.73
95.57
104.45
109.39
107.07
97.49
83.57
69.54
58.92
53.50
53.19
56.50
60.97
63.59
61.26
51.63
34.17
10.75
-14.73
-37.75
-54.95
-65.35
-70.44
-73.09
-76.35
-82.37
-92.17
-105.74
-122.38
-141.04
-160.47
-179.56
-197.52
-213.65
-227.17
-237.01
-241.97
-241.31
-235.37
-225.70
-214.39
-202.83
-190.68
-175.73
-155.14
-127.35
-93.56
-58.11
-27.07
-6.33
0.38
-7.54
-27.62
-54.91
-83.03
-105.43
-116.87
-114.78
-99.87
-75.69
-47.05
-18.12
8.84
33.11
53.93
69.26
75.40
68.69
47.92
16.33
-18.63
-47.62
-62.89
-61.46
-46.39
-25.64
-9.25
-5.65
-18.72
-46.51
-82.04
-115.93
-139.75
-148.69
-142.86
-126.54
-105.96
-86.67
-71.57
-60.21
-49.60
-36.05
-17.06
7.50
35.50
63.78
89.69
112.22
132.31
152.24
174.78
202.45
237.07
279.22
327.71
378.88
426.39
462.26
478.99
472.27
442.77
396.10
340.89
285.88
237.37
198.17
168.23
146.06
130.09
119.19
112.44
108.60
106.02
103.05
98.72
93.10
87.03
81.50
76.90
72.83
68.32
62.51
55.22
47.05
39.10
32.40
27.41
23.87
21.00
17.96
14.10
9.08
2.81
-4.64
-13.06
-22.25
-32.13
-43.19
-56.88
-75.53
-101.59
-136.20
-177.97
-222.55
-263.71
-295.56
-314.55
-320.63
-316.55
-306.07
-292.32
-277.22
-262.09
-248.49
-238.42
-233.20
-232.06
-231.55
-226.49
-212.17
-186.93
-153.03
-115.48
-79.66
-48.47
-20.83
8.04
44.32
92.55
152.66
218.85
280.80
326.78
347.67
339.73
305.47
252.12
188.91
124.89
67.60
22.78
-5.87
-17.22
-13.24
1.10
19.23
35.29
46.10
51.76
54.41
56.16
57.70
58.04
55.71
50.13
42.48
35.13
30.51
29.89
32.58
36.38
38.41
36.19
28.54
15.95
0.43
-15.17
-27.76
-34.92
-35.49
-29.66
-18.91
-5.38
8.60
20.98
30.20
35.00
34.44
28.08
16.14
-0.16
-18.81
-37.55
-54.66
-69.69
-83.44
-97.31
-112.05
-126.89
-139.39
-146.26
-144.96
-134.77
-117.07
-94.50
-69.73
-44.65
-20.31
2.42
22.28
37.51
46.36
47.98
42.75
32.29
18.73
4.02
-10.43
-23.87
-36.01
-46.67
-55.62
-62.40
-66.38
-66.98
-63.96
-57.81
-49.77
-41.64
-35.01
-30.72
-28.62
-27.61
-26.38
-23.80
-19.35
-13.02
-5.13
3.81
13.13
21.81
28.62
32.31
31.91
27.22
18.83
8.08
-3.35
-13.85
-22.31
-28.35
-32.34
-35.16
-37.76
-40.87
-44.64
-48.56
-51.69
-52.94
-51.46
-47.09
-40.31
-32.28
-24.40
-17.88
-13.43
-11.12
-10.46
-10.57
-10.35
-8.60
-4.10
4.05
16.06
31.10
47.16
61.54
71.63
75.94
74.62
69.35
62.61
56.63
52.54
50.16
48.32
45.59
40.82
33.58
24.09
13.12
1.75
-8.95
-18.06
-25.13
-30.40
-34.66
-39.02
-44.29
-50.49
-56.74
-61.69
-64.15
-63.69
-60.76
-56.23
-50.85
-44.94
-38.42
-31.19
-23.40
-15.27
-6.91
1.98
11.78
22.54
33.54
43.37
50.67
54.89
56.75
57.79
59.43
62.08
64.79
66.02
64.60
60.62
55.49
51.11
48.76
48.40
48.83
48.37
45.87
41.19
35.14
28.90
23.36
18.64
14.37
9.90
4.90
-0.46
-5.69
-10.25
-13.97
-17.11
-20.16
-23.38
-26.49
-28.60
-28.50
-25.28
-18.97
-10.58
-2.04
4.76
8.62
9.55
8.72
7.82
8.29
10.62
14.31
18.17
21.04
22.48
22.97
23.77
26.18
30.77
37.06
43.59
48.53
50.43
48.58
43.09
34.75
25.04
16.32
11.76
14.56
26.45
46.10
68.65
86.99
94.74
89.10
72.42
50.98
31.98
20.32
16.77
18.57
21.64
22.99
21.89
19.59
17.92
18.01
19.67
21.86
23.41
23.86
23.55
23.29
23.75
24.84
25.62
24.71
21.09
14.86
7.46
1.26
-1.59
-0.08
5.07
11.68
17.03
18.90
16.44
10.27
2.05
-6.22
-13.03
-17.73
-20.47
-21.84
-22.49
-22.85
-23.05
-23.05
-22.79
-22.24
-21.53
-20.80
-20.18
-19.72
-19.36
-19.11
-19.00
-19.24
-19.97
-21.24
-22.86
-24.47
-25.70
-26.33
-26.43
-26.26
-26.09
-26.11
-26.22
-26.27
-26.14
-25.92
-25.95
-26.64
-28.22
-30.57
-33.14
-35.15
-35.84
-34.79
-32.05
-28.04
-23.47
-18.99
-15.06
-11.88
-9.37
-7.41
-5.93
-4.97
-4.65
-5.01
-5.85
-6.82
-7.43
-7.36
-6.54
-5.32
-4.15
-3.51
-3.49
-3.85
-4.19
-4.23
-4.03
-4.03
-4.83
-6.79
-9.83
-13.44
-16.85
-19.44
-20.91
-21.25
-20.75
-19.63
-17.98
-15.78
-12.97
-9.63
-6.02
-2.55
0.38
2.45
3.56
3.81
3.38
2.56
1.64
0.79
0.17
-0.23
-0.46
-0.60
-0.70
-0.77
-0.88
-1.13
-1.67
-2.60
-3.87
-5.28
-6.56
-7.58
-8.52
-9.72
-11.65
-14.40
-17.64
-20.56
-22.21
-21.95
-19.69
-15.97
-11.64
-7.52
-4.07
-1.34
0.82
2.65
4.16
5.21
5.63
5.29
4.31
2.95
1.51
0.30
-0.65
-1.46
-2.34
-3.47
-4.78
-6.08
-7.08
-7.61
-7.75
-7.79
-8.20
-9.38
-11.54
-14.63
-18.41
-22.52
-26.57
-30.17
-32.94
-34.55
-34.73
-33.35
-30.56
-26.66
-22.17
-17.79
-14.09
-11.43
-9.45
-7.07
-2.61
5.81
19.55
39.01
63.43
91.09
119.61
146.32
168.55
183.99
191.00
189.07
178.90
162.23
141.31
118.32
95.02
72.73
52.47
35.01
20.73
9.43
0.37
-7.46
-14.87
-22.10
-28.91
-35.08
-40.85
-47.15
-55.13
-65.57
-78.23
-91.82
-104.36
-114.01
-119.80
-122.08
-122.31
-122.48
-124.11
-127.63
-132.12
-135.48
-135.22
-129.07
-115.54
-94.16
-65.55
-31.59
4.41
37.55
62.60
75.69
76.11
67.01
54.39
44.92
43.18
50.09
62.77
76.74
88.32
95.92
99.71
100.44
98.52
93.54
84.97
72.12
55.55
37.08
19.15
3.52
-9.52
-21.00
-33.04
-47.77
-67.29
-91.89
-119.47
-145.95
-166.85
-178.91
-180.95
-174.36
-156.92
-130.07
-98.51
-67.99
-41.63
-19.16
0.63
19.98
39.04
56.75
71.09
81.29
87.37
90.78
93.31
96.37
100.93
107.13
114.74
122.33
128.17
130.62
128.63
121.88
110.98
97.79
84.85
74.85
69.22
67.87
69.18
70.75
70.12
65.93
58.70
50.47
43.88
40.39
39.48
38.61
34.14
22.56
1.82
-28.00
-64.61
-103.82
-140.29
-168.23
-182.42
-179.53
-159.47
-126.08
-86.48
-49.12
-21.19
-6.36
-4.12
-10.74
-21.27
-31.53
-39.25
-44.04
-46.58
-47.71
-47.99
-47.84
-47.86
-48.97
-52.29
-58.66
-68.21
-80.21
-93.15
-105.09
-113.88
-117.57
-114.82
-105.16
-89.32
-69.06
-46.81
-24.94
-5.17
11.61
25.27
36.07
44.41
50.68
55.37
59.08
62.33
65.17
66.90
66.16
61.37
51.54
36.71
18.04
-2.69
-23.79
-44.18
-63.46
-81.52
-97.96
-111.75
-121.43
-125.70
-124.31
-118.45
-110.68
-104.13
-101.44
-103.97
-111.44
-122.26
-134.13
-144.68
-151.64
-153.00
-146.91
-132.00
-107.96
-76.12
-39.43
-1.64
34.16
66.94
98.01
129.90
164.28
200.12
233.47
258.80
271.57
270.16
256.49
234.97
210.73
188.19
170.32
158.71
153.46
153.10
154.59
154.04
148.15
135.83
118.90
101.30
87.31
79.53
78.00
80.55
84.00
85.59
83.61
77.55
67.79
55.28
41.23
26.81
12.74
-1.01
-15.09
-30.27
-46.92
-64.67
-82.38
-98.72
-112.68
-124.14
-134.22
-145.19
-159.83
-180.28
-206.45
-234.84
-258.59
-269.26
-259.78
-227.49
-175.25
-110.60
-43.08
18.83
69.84
108.30
135.22
152.70
162.25
165.00
161.88
153.93
142.33
128.08
111.88
94.08
74.83
53.82
31.60
9.68
-9.90
-25.68
-37.58
-47.17
-57.07
-69.89
-87.82
-110.52
-135.05
-156.82
-171.34
-175.53
-168.41
-150.94
-121.46
-82.53
-39.97
-1.15
28.40
46.94
56.00
58.85
59.13
59.84
62.07
66.49
73.30
82.25
92.20
101.23
107.16
108.52
106.80
101.93
95.08
87.84
81.12
74.69
67.42
58.20
47.04
35.37
24.93
17.99
16.05
19.09
25.65
33.40
40.15
44.52
46.02
44.24
39.37
31.93
22.85
13.62
6.09
1.94
1.85
4.90
8.52
9.95
7.28
0.37
-9.11
-18.70
-26.19
-30.49
-31.60
-30.10
-26.35
-20.51
-13.07
-5.52
-0.82
-2.82
-14.87
-38.12
-70.33
-105.94
-137.72
-159.36
-167.44
-162.48
-147.98
-128.33
-106.98
-85.57
-64.51
-44.14
-25.36
-9.34
3.25
12.99
20.99
27.56
30.92
27.54
14.26
-8.89
-37.29
-63.03
-78.31
-79.34
-68.03
-50.70
-34.61
-24.45
-20.74
-20.93
-21.85
-21.75
-20.92
-20.65
-21.60
-22.99
-23.09
-20.40
-14.81
-7.73
-1.41
2.20
2.41
0.02
-3.29
-5.79
-6.63
-6.08
-5.21
-5.21
-6.70
-9.30
-11.89
-13.10
-11.87
-7.93
-1.85
5.24
11.93
16.73
18.62
17.40
14.40
12.40
14.81
24.06
39.75
58.06
72.93
78.60
72.39
55.91
34.21
13.27
-2.59
-11.86
-15.48
-15.01
-11.44
-4.87
4.67
16.11
27.04
34.44
35.93
31.01
21.32
9.94
0.13
-5.86
-7.44
-5.60
-2.13
1.08
2.96
3.36
2.85
2.27
2.06
2.13
1.99
1.16
-0.49
-2.57
-4.35
-5.23
-4.92
-3.65
-2.02
-0.52
0.56
1.34
2.22
3.57
5.48
7.71
9.78
11.24
11.92
11.93
11.66
11.48
11.65
12.14
12.93
13.94
15.38
17.53
20.68
24.92
29.95
35.07
39.45
42.40
43.59
43.21
41.86
40.21
38.70
37.39
35.79
33.39
29.86
25.34
20.49
16.15
12.96
11.13
10.35
10.07
9.78
9.20
8.28
7.16
5.92
4.55
2.99
1.14
-0.90
-2.94
-4.80
-6.36
-7.82
-9.53
-11.80
-14.58
-17.31
-19.03
-18.73
-15.90
-10.76
-4.17
2.56
8.45
13.01
16.45
19.37
22.24
25.20
27.95
30.08
31.33
31.88
32.14
32.46
32.99
33.57
33.94
34.03
33.87
33.73
33.74
33.78
33.59
32.87
31.49
29.70
27.98
26.92
26.93
28.07
29.89
31.69
32.64
32.03
29.72
26.06
21.89
18.18
15.56
14.02
12.89
11.21
8.19
3.61
-2.21
-8.67
-15.26
-21.76
-28.32
-34.93
-41.38
-46.95
-50.74
-52.14
-51.02
-48.03
-44.29
-40.96
-38.84
-38.01
-38.07
-38.34
-38.34
-38.07
-37.96
-38.80
-40.97
-44.43
-48.44
-51.83
-53.61
-53.26
-51.01
-47.59
-43.75
-39.95
-36.24
-32.37
-28.01
-22.94
-17.28
-11.33
-5.65
-0.84
2.55
4.07
3.67
1.50
-1.86
-5.65
-8.99
-11.06
-11.36
-9.90
-7.21
-4.26
-2.06
-1.55
-2.93
-5.96
-9.89
-13.85
-17.25
-19.91
-22.06
-24.16
-26.55
-29.31
-32.14
-34.59
-36.12
-36.39
-35.42
-33.37
-30.59
-27.27
-23.38
-18.88
-13.73
-8.31
-3.26
0.64
2.92
3.68
3.55
3.46
4.10
5.64
7.68
9.39
10.30
10.33
10.00
10.11
11.08
12.79
14.55
15.56
15.42
14.48
13.60
13.60
14.80
16.69
18.07
17.91
15.74
12.24
9.01
7.80
9.84
15.10
22.40
29.92
36.08
40.17
42.61
44.66
47.63
52.25
58.29
64.52
69.42
71.62
70.38
65.76
58.35
49.29
40.36
34.05
33.20
40.10
55.24
76.51
99.36
118.21
128.37
127.87
117.78
101.34
82.11
62.34
42.45
21.73
-0.36
-23.16
-44.73
-62.81
-75.90
-84.06
-88.79
-92.27
-96.27
-101.51
-107.44
-112.91
-116.88
-118.92
-119.38
-119.07
-118.67
-118.32
-117.63
-115.81
-112.17
-106.54
-99.28
-91.13
-82.76
-74.42
-66.01
-57.34
-48.50
-40.02
-32.53
-26.30
-20.77
-14.80
-7.23
2.27
12.75
22.17
28.30
29.76
26.84
21.56
16.88
15.65
19.54
28.41
40.47
53.01
63.40
70.00
72.54
71.95
69.70
67.13
64.93
63.11
61.19
58.48
54.35
48.23
39.68
28.49
14.86
-0.34
-15.69
-29.53
-40.63
-48.63
-54.28
-59.11
-64.76
-72.22
-81.44
-91.30
-100.09
-106.15
-108.52
-107.28
-103.42
-98.47
-93.85
-90.45
-88.35
-87.06
-85.85
-84.18
-81.82
-78.73
-74.83
-69.81
-63.15
-54.52
-44.09
-32.73
-21.77
-12.31
-4.49
2.83
11.72
24.01
40.02
57.92
74.22
85.32
89.41
87.45
82.81
79.88
82.23
91.39
106.47
124.76
142.68
156.61
163.55
161.47
149.56
128.46
100.23
68.32
36.92
10.24
-8.49
-17.83
-18.57
-13.40
-5.97
0.38
3.62
3.39
0.60
-3.38
-7.39
-10.70
-12.98
-14.13
-14.16
-13.18
-11.36
-8.82
-5.56
-1.49
3.42
8.91
14.35
18.76
21.23
21.28
19.10
15.46
11.53
8.39
6.67
6.42
7.06
7.76
7.81
6.82
4.92
2.57
0.34
-1.46
-2.80
-3.93
-5.11
-6.45
-7.80
-8.81
-9.07
-8.37
-6.86
-5.00
-3.45
-2.80
-3.35
-5.03
-7.43
-10.02
-12.33
-14.13
-15.40
-16.25
-16.72
-16.68
-15.89
-14.13
-11.37
-7.92
-4.34
-1.29
0.75
1.59
1.45
0.80
0.10
-0.35
-0.50
-0.52
-0.62
-0.95
-1.53
-2.33
-3.31
-4.47
-5.87
-7.44
-9.04
-10.38
-11.16
-11.20
-10.52
-9.27
-7.73
-6.15
-4.68
-3.33
-2.07
-0.82
0.37
1.36
2.01
2.19
2.03
1.85
2.15
3.35
5.57
8.53
11.58
14.04
15.44
15.74
15.31
14.72
14.45
14.65
15.11
15.39
15.08
13.99
12.18
9.89
7.38
4.79
2.13
-0.72
-3.84
-7.21
-10.77
-14.37
-17.87
-21.12
-23.92
-26.01
-27.07
-26.85
-25.21
-22.25
-18.25
-13.67
-8.97
-4.54
-0.72
2.25
4.23
5.16
5.11
4.34
3.29
2.45
2.17
2.52
3.22
3.84
3.99
3.63
2.99
2.44
2.26
2.41
2.63
2.55
1.89
0.59
-1.25
-3.46
-5.88
-8.32
-10.57
-12.39
-13.55
-13.94
-13.60
-12.67
-11.38
-9.91
-8.51
-7.39
-6.73
-6.46
-6.24
-5.55
-3.93
-1.31
1.90
4.96
7.13
8.09
7.95
7.17
6.17
5.15
4.09
2.93
1.76
0.84
0.45
0.64
1.08
1.24
0.59
-1.11
-3.72
-6.78
-9.71
-12.04
-13.52
-14.09
-13.92
-13.23
-12.29
-11.34
-10.54
-9.89
-9.19
-8.11
-6.29
-3.50
0.17
4.28
8.08
10.77
11.82
11.11
9.08
6.50
4.22
2.90
2.88
4.21
6.73
10.16
14.06
17.81
20.69
22.07
21.69
19.81
17.08
14.21
11.70
9.59
7.65
5.62
3.48
1.53
0.17
-0.29
0.22
1.42
2.93
4.41
5.68
6.73
7.63
8.38
8.87
8.97
8.64
7.99
7.26
6.66
6.28
6.00
5.57
4.83
3.74
2.46
1.11
-0.19
-1.50
-2.86
-4.18
-5.30
-6.03
-6.38
-6.59
-7.00
-7.86
-9.12
-10.49
-11.58
-12.08
-11.89
-10.95
-9.23
-6.59
-2.99
1.43
6.13
10.31
13.19
14.29
13.66
11.85
9.62
7.72
6.61
6.41
6.95
7.89
8.88
9.64
9.99
9.86
9.25
8.23
6.95
5.64
4.54
3.82
3.55
3.58
3.61
3.27
2.25
0.47
-1.97
-4.73
-7.41
-9.66
-11.30
-12.30
-12.80
-12.94
-12.82
-12.36
-11.47
-10.09
-8.32
-6.46
-4.86
-3.84
-3.46
-3.56
-3.84
-4.04
-4.02
-3.79
-3.46
-3.11
-2.74
-2.29
-1.70
-1.05
-0.48
-0.20
-0.39
-1.05
-2.14
-3.51
-4.99
-6.46
-7.79
-8.93
-9.84
-10.51
-10.98
-11.24
-11.20
-10.76
-9.82
-8.33
-6.36
-4.08
-1.67
0.70
2.93
4.95
6.66
7.96
8.69
8.79
8.26
7.19
5.74
4.14
2.66
1.55
0.99
1.09
1.74
2.71
3.67
4.29
4.33
3.72
2.49
0.80
-1.18
-3.27
-5.33
-7.21
-8.77
-9.90
-10.53
-10.64
-10.27
-9.51
-8.43
-7.08
-5.48
-3.66
-1.72
0.21
1.94
3.34
4.37
5.11
5.72
6.30
6.86
7.25
7.33
7.01
6.38
5.71
5.25
5.15
5.26
5.22
4.67
3.43
1.67
-0.11
-1.35
-1.64
-0.99
0.16
1.21
1.62
1.10
-0.25
-2.01
-3.63
-4.48
-4.02
-1.87
1.94
6.74
11.25
13.78
12.93
8.35
1.11
-6.39
-11.22
-11.06
-5.15
5.32
17.62
28.40
34.88
35.60
30.72
21.63
10.28
-1.37
-11.76
-19.75
-24.49
-25.46
-22.60
-16.70
-9.46
-3.28
-0.45
-2.22
-8.07
-15.70
-21.92
-23.94
-20.54
-12.65
-2.91
5.47
9.83
8.84
2.71
-6.90
-17.31
-25.16
-27.00
-20.14
-3.68
20.73
48.96
75.39
94.75
103.83
102.36
92.71
78.51
63.06
48.18
34.06
19.83
4.54
-12.11
-29.55
-46.65
-62.24
-75.73
-87.21
-97.17
-106.08
-113.84
-119.76
-122.64
-121.29
-114.88
-103.23
-86.80
-66.55
-43.78
-19.90
3.77
26.05
46.08
63.28
77.42
88.62
97.02
102.65
105.14
103.77
97.80
86.85
71.69
54.12
36.99
23.29
15.16
13.11
15.65
19.65
21.62
19.21
12.16
2.23
-7.70
-15.27
-19.75
-22.00
-24.03
-27.23
-31.66
-35.87
-37.73
-35.98
-31.11
-25.40
-21.83
-22.54
-27.56
-34.54
-40.01
-40.84
-35.79
-26.29
-15.07
-5.30
1.22
4.01
3.21
-1.14
-9.25
-21.01
-34.91
-47.70
-55.37
-55.05
-46.48
-32.47
-17.72
-6.37
-0.74
-0.30
-2.71
-5.30
-6.27
-5.45
-3.76
-2.47
-2.19
-2.52
-2.24
0.16
5.44
13.22
21.99
29.37
33.44
33.22
29.45
24.17
19.83
18.23
19.59
22.57
25.04
25.40
23.44
20.42
18.31
18.53
21.04
24.50
26.63
25.71
21.17
13.82
5.41
-2.37
-8.43
-12.48
-14.59
-14.86
-13.20
-9.50
-4.07
2.25
8.13
11.94
12.81
10.59
6.35
1.90
-1.12
-1.80
-0.50
1.45
2.46
1.63
-0.81
-3.71
-5.54
-5.40
-3.42
-0.52
1.81
2.77
2.35
1.27
0.53
0.50
0.62
-0.31
-3.35
-8.64
-15.13
-20.84
-23.84
-22.83
-17.62
-9.23
1.05
11.75
21.83
30.56
37.20
40.93
40.89
36.43
27.75
16.22
4.23
-5.43
-10.41
-9.66
-3.79
5.53
15.84
25.18
32.27
36.39
37.13
33.77
25.43
11.62
-6.96
-27.97
-47.64
-61.67
-66.91
-62.33
-49.61
-32.88
-16.79
-5.26
0.19
0.56
-1.48
-3.13
-2.99
-1.74
-1.38
-3.51
-8.02
-12.87
-15.02
-12.33
-5.12
4.24
12.02
15.56
14.46
10.57
6.89
5.44
6.17
7.05
5.55
0.28
-7.94
-16.29
-21.55
-21.55
-16.29
-8.23
-0.63
3.69
4.09
2.14
0.69
2.16
7.22
14.17
20.06
22.57
21.31
18.18
16.38
18.57
25.04
34.04
42.02
46.06
45.07
40.15
33.85
28.32
24.26
20.69
16.10
9.66
1.97
-4.98
-9.22
-9.72
-6.94
-3.00
-0.28
-0.53
-3.95
-9.23
-14.44
-17.99
-19.58
-20.47
-22.62
-27.29
-33.96
-40.25
-42.74
-38.75
-28.07
-12.79
3.00
15.62
23.16
26.07
26.53
26.66
27.22
27.34
25.58
21.17
14.93
9.23
6.58
8.41
14.37
21.95
28.18
30.66
28.93
24.47
19.59
16.08
14.11
11.90
6.97
-2.09
-14.42
-26.94
-35.46
-36.79
-30.47
-18.57
-5.14
6.19
13.55
17.29
19.29
21.19
23.31
24.50
23.31
19.17
13.20
7.97
5.99
8.56
15.05
22.76
28.70
30.62
28.39
23.78
19.38
17.11
17.21
17.94
16.84
12.29
4.59
-4.13
-10.86
-13.41
-11.78
-7.69
-4.12
-3.10
-4.80
-7.53
-8.65
-6.47
-1.27
4.83
9.24
10.49
9.04
7.22
7.51
11.23
17.80
24.62
28.96
29.15
25.69
20.89
17.51
17.17
19.51
22.21
22.39
18.41
10.82
2.22
-3.89
-4.89
-0.63
7.08
14.80
19.68
20.50
17.96
14.11
10.70
8.32
6.29
3.67
0.38
-2.34
-2.21
2.63
12.59
26.17
40.06
51.00
56.89
57.72
55.38
52.34
50.25
49.21
47.62
43.50
35.84
25.46
14.75
6.62
3.10
3.96
7.24
9.75
9.09
4.63
-2.49
-10.02
-16.38
-21.59
-27.14
-34.74
-44.97
-56.52
-66.53
-72.27
-72.40
-67.65
-60.77
-54.75
-51.52
-51.09
-51.66
-51.05
-48.07
-43.23
-38.67
-36.87
-39.19
-44.96
-51.81
-56.55
-56.84
-52.51
-45.12
-37.65
-32.38
-30.08
-29.80
-29.65
-28.34
-26.09
-24.43
-24.98
-28.21
-32.85
-36.38
-36.57
-32.74
-26.07
-19.45
-15.45
-15.25
-17.92
-20.89
-21.55
-18.57
-12.68
-6.26
-2.03
-1.54
-4.31
-8.22
-10.49
-9.30
-5.02
0.47
4.32
4.89
2.41
-1.17
-3.37
-2.86
-0.38
1.79
1.42
-2.19
-7.61
-11.97
-12.77
-9.24
-2.76
3.58
6.94
5.94
1.26
-4.81
-9.90
-12.66
-13.38
-13.56
-14.80
-17.73
-21.42
-23.97
-23.32
-18.48
-10.45
-1.40
5.81
9.57
9.98
8.76
8.07
9.05
10.95
11.70
9.46
4.07
-2.54
-7.13
-7.14
-2.14
6.00
13.68
17.85
17.27
12.96
7.45
3.12
1.01
0.26
-1.05
-4.77
-11.41
-19.74
-27.39
-31.79
-31.41
-26.76
-19.61
-12.59
-7.32
-3.91
-1.13
2.62
7.89
13.45
16.95
16.42
11.72
4.89
-0.67
-2.16
1.16
7.77
14.38
18.17
17.89
14.45
10.11
6.98
5.89
5.99
5.51
2.93
-2.07
-8.30
-13.83
-16.90
-16.80
-14.57
-11.97
-11.07
-12.51
-15.46
-17.92
-17.86
-14.56
-9.21
-4.20
-1.66
-2.06
-3.93
-4.58
-1.92
4.22
12.05
18.36
20.77
18.76
13.95
9.19
6.74
7.16
9.03
9.98
8.12
3.20
-3.18
-8.57
-10.81
-9.19
-5.06
-0.73
1.33
0.17
-3.44
-7.53
-10.15
-10.62
-9.98
-10.18
-12.54
-16.63
-20.26
-20.47
-15.40
-5.45
6.88
17.80
24.41
25.75
22.98
18.61
14.86
12.67
11.49
10.04
7.35
3.50
-0.35
-2.69
-2.46
0.39
4.47
8.03
9.29
7.81
4.41
0.76
-1.61
-2.34
-2.52
-4.11
-8.50
-15.45
-22.97
-28.03
-28.28
-23.26
-14.53
-5.20
2.01
5.82
6.78
6.70
7.20
8.80
10.62
11.17
9.45
5.66
1.32
-1.66
-1.81
1.07
5.60
9.85
12.01
11.62
9.60
7.61
7.08
8.18
9.68
9.65
6.85
1.58
-4.38
-8.58
-9.47
-7.22
-3.49
-0.80
-0.67
-3.09
-6.51
-8.77
-8.46
-5.63
-1.70
1.53
2.85
2.35
1.24
1.02
2.65
6.08
9.87
12.47
12.57
10.21
6.69
3.88
3.21
4.76
7.08
7.99
5.95
1.08
-4.79
-8.92
-9.24
-5.60
0.42
5.86
8.43
7.32
3.52
-0.91
-4.22
-5.87
-6.53
-7.32
-8.77
-10.39
-10.85
-9.01
-4.57
1.58
7.49
11.41
12.29
10.49
7.48
4.91
3.90
4.33
4.90
3.99
0.73
-4.35
-9.45
-12.32
-11.47
-7.13
-0.92
4.54
7.33
6.87
4.05
0.64
-1.99
-3.57
-4.95
-7.30
-11.15
-15.95
-20.08
-21.93
-20.51
-16.05
-10.14
-4.52
-0.65
1.27
2.19
3.51
6.24
10.16
13.85
15.40
13.66
9.09
3.60
-0.12
-0.16
3.62
9.74
15.54
19.05
19.64
18.24
16.63
16.10
16.60
16.85
15.26
11.09
5.06
-0.87
-4.63
-5.04
-2.51
0.94
3.19
2.81
0.17
-2.75
-3.52
-0.52
6.06
14.29
21.45
25.52
26.03
24.11
21.76
20.71
21.63
24.27
27.67
31.24
34.88
38.77
42.96
46.78
48.92
48.15
44.10
37.83
31.49
27.24
25.90
26.37
25.94
21.37
10.81
-5.45
-24.94
-44.19
-60.28
-71.85
-79.12
-83.13
-84.71
-83.95
-80.47
-74.06
-65.29
-55.57
-46.61
-39.68
-35.21
-32.58
-30.60
-28.10
-24.44
-19.73
-14.62
-9.86
-5.88
-2.63
0.29
3.35
6.77
10.41
13.88
16.72
18.65
19.68
20.06
20.15
20.08
19.77
18.94
17.27
14.64
11.24
7.56
4.29
2.12
1.51
2.54
4.89
7.93
11.04
13.75
15.92
17.68
19.12
20.19
20.60
20.05
18.52
16.41
14.42
13.27
13.36
14.56
16.21
17.59
18.10
17.57
16.27
14.64
13.09
11.73
10.39
8.73
6.45
3.53
0.15
-3.28
-6.35
-8.78
-10.43
-11.33
-11.56
-11.20
-10.47
-9.63
-9.15
-9.53
-11.05
-13.41
-15.54
-15.87
-13.03
-6.62
2.30
11.47
18.14
20.37
17.74
11.46
3.74
-3.30
-8.32
-11.03
-11.83
-11.25
-9.67
-7.27
-4.36
-1.44
0.75
1.58
0.77
-1.44
-4.35
-7.04
-8.72
-8.91
-7.56
-5.05
-2.00
0.91
3.20
4.73
5.71
6.49
7.41
8.54
9.58
10.15
9.94
9.01
7.75
6.72
6.34
6.69
7.54
8.48
9.20
9.59
9.66
9.53
9.23
8.61
7.48
5.63
3.04
-0.09
-3.40
-6.40
-8.66
-9.90
-10.03
-9.13
-7.35
-4.83
-1.75
1.69
5.16
8.25
10.56
11.87
12.20
11.84
11.21
10.58
10.04
9.48
8.72
7.75
6.75
6.05
5.94
6.49
7.54
8.72
9.64
10.01
9.74
8.96
7.87
6.70
5.54
4.38
3.18
1.97
0.94
0.47
0.98
2.76
5.89
10.15
15.11
20.35
25.52
30.47
35.22
39.82
44.28
48.42
51.95
54.72
56.83
58.70
60.93
64.09
68.52
74.05
80.03
85.48
89.64
92.14
93.00
92.44
90.69
87.86
83.93
78.83
72.67
66.08
59.85
54.39
49.23
43.01
33.96
20.64
2.40
-20.29
-45.82
-72.11
-97.15
-119.36
-137.36
-149.38
-152.47
-144.58
-126.51
-102.19
-77.14
-56.13
-41.43
-32.47
-26.40
-19.73
-9.85
2.94
16.39
27.31
32.93
32.20
26.02
16.72
6.99
-1.19
-6.80
-8.41
-4.87
4.24
17.90
33.45
47.25
55.95
58.01
54.51
49.20
47.10
52.75
68.60
94.10
125.80
158.30
185.80
203.66
209.52
203.43
187.11
163.00
133.33
99.70
63.26
24.87
-14.62
-54.20
-92.76
-128.91
-160.99
-187.35
-206.78
-219.30
-226.04
-229.07
-230.51
-231.61
-232.70
-233.29
-232.81
-230.81
-226.92
-220.53
-210.67
-196.56
-178.26
-157.27
-136.30
-118.34
-105.65
-98.92
-97.23
-98.76
-101.66
-104.90
-108.42
-112.74
-118.33
-125.13
-132.50
-139.33
-144.48
-146.97
-145.92
-140.77
-130.85
-115.79
-95.82
-72.00
-46.50
-22.01
-0.80
16.36
30.72
45.07
62.40
84.17
109.32
134.52
155.48
169.21
175.27
176.03
175.43
177.07
182.98
193.25
206.64
221.52
236.33
249.45
258.91
262.42
257.85
244.08
221.73
192.96
160.95
128.84
98.93
72.43
49.61
30.23
13.98
0.71
-9.64
-17.17
-22.20
-25.22
-26.80
-27.31
-26.91
-25.47
-22.82
-18.95
-14.15
-9.10
-4.77
-2.25
-2.50
-6.06
-12.85
-22.07
-32.41
-42.35
-50.60
-56.36
-59.44
-60.19
-59.25
-57.38
-55.28
-53.55
-52.60
-52.63
-53.51
-54.90
-56.19
-56.74
-55.94
-53.45
-49.28
-43.73
-37.48
-31.22
-25.60
-20.99
-17.47
-14.92
-13.11
-11.86
-11.07
-10.64
-10.51
-10.57
-10.67
-10.69
-10.56
-10.25
-9.77
-9.14
-8.37
-7.50
-6.57
-5.70
-5.07
-4.87
-5.28
-6.36
-8.00
-9.83
-11.38
-12.14
-11.81
-10.36
-8.03
-5.18
-2.23
0.58
3.12
5.34
7.22
8.67
9.64
10.09
10.12
9.92
9.68
9.55
9.55
9.61
9.60
9.42
9.03
8.41
7.59
6.61
5.49
4.21
2.70
0.85
-1.43
-4.14
-7.11
-10.01
-12.37
-13.69
-13.62
-12.07
-9.28
-5.76
-2.12
1.01
3.22
4.41
4.78
4.78
4.86
5.35
6.29
7.42
8.34
8.58
7.85
6.09
3.46
0.34
-2.78
-5.41
-7.12
-7.69
-7.18
-5.97
-4.73
-4.21
-5.01
-7.26
-10.53
-13.89
-16.26
-16.75
-15.03
-11.45
-6.83
-2.25
1.44
3.73
4.64
4.56
4.04
3.61
3.57
3.91
4.40
4.71
4.61
4.10
3.37
2.72
2.35
2.29
2.43
2.50
2.33
1.84
1.12
0.24
-0.79
-2.08
-3.79
-5.96
-8.45
-10.86
-12.66
-13.40
-12.89
-11.26
-8.89
-6.30
-3.87
-1.75
0.08
1.73
3.24
4.55
5.46
5.78
5.38
4.28
2.64
0.75
-1.02
-2.29
-2.72
-2.11
-0.56
1.54
3.61
4.99
5.27
4.33
2.35
-0.33
-3.35
-6.42
-9.32
-11.74
-13.27
-13.54
-12.38
-9.99
-6.96
-3.99
-1.67
-0.23
0.57
1.15
1.98
3.24
4.82
6.33
7.37
7.61
6.99
5.64
3.84
1.86
-0.08
-1.79
-3.12
-3.96
-4.24
-4.07
-3.76
-3.76
-4.50
-6.20
-8.67
-11.36
-13.50
-14.42
-13.70
-11.34
-7.69
-3.28
1.32
5.60
9.20
11.91
13.67
14.52
14.58
13.98
12.94
11.70
10.54
9.77
9.55
9.87
10.54
11.27
11.82
12.07
12.11
12.07
12.05
12.00
11.65
10.72
8.99
6.47
3.47
0.45
-2.00
-3.37
-3.29
-1.59
1.68
6.24
11.64
17.35
22.77
27.42
30.89
32.95
33.52
32.79
31.16
29.21
27.52
26.51
26.39
27.13
28.54
30.37
32.25
33.75
34.27
33.23
30.22
25.27
18.86
11.74
4.72
-1.69
-7.35
-12.42
-17.13
-21.59
-25.70
-29.15
-31.59
-32.76
-32.60
-31.23
-28.98
-26.20
-23.16
-20.02
-16.79
-13.49
-10.20
-7.11
-4.51
-2.68
-1.70
-1.50
-1.83
-2.38
-2.90
-3.24
-3.40
-3.45
-3.50
-3.62
-3.84
-4.12
-4.44
-4.78
-5.15
-5.59
-6.16
-6.83
-7.58
-8.40
-9.30
-10.30
-11.32
-12.10
-12.24
-11.34
-9.17
-5.83
-1.77
2.36
5.94
8.59
10.20
10.90
10.87
10.27
9.14
7.56
5.67
3.76
2.17
1.17
0.85
1.05
1.43
1.64
1.47
0.98
0.37
-0.11
-0.33
-0.39
-0.51
-0.97
-1.91
-3.32
-4.91
-6.32
-7.12
-7.05
-6.07
-4.37
-2.28
-0.14
1.82
3.57
5.19
6.75
8.23
9.47
10.24
10.41
9.96
9.07
7.98
6.94
6.08
5.40
4.82
4.28
3.77
3.33
3.08
3.06
3.20
3.31
3.18
2.61
1.56
0.09
-1.63
-3.38
-5.00
-6.37
-7.33
-7.66
-7.16
-5.68
-3.25
-0.14
3.18
6.24
8.68
10.37
11.39
11.94
12.19
12.20
11.88
11.11
9.82
8.15
6.36
4.76
3.54
2.73
2.21
1.83
1.56
1.44
1.60
2.04
2.55
2.82
2.48
1.29
-0.73
-3.43
-6.48
-9.52
-12.12
-13.89
-14.47
-13.66
-11.52
-8.36
-4.65
-0.84
2.67
5.64
7.96
9.55
10.36
10.46
10.00
9.29
8.64
8.32
8.46
9.06
10.03
11.24
12.64
14.24
16.05
18.10
20.28
22.39
24.14
25.31
25.83
25.86
25.83
26.12
27.06
28.66
30.67
32.77
34.75
36.69
38.95
42.04
46.37
51.99
58.57
65.46
71.94
77.44
81.79
85.18
88.15
91.35
95.35
100.34
105.90
110.86
113.42
111.60
103.86
89.63
69.43
44.46
15.98
-15.31
-49.42
-86.81
-127.61
-170.90
-214.43
-254.69
-287.64
-309.74
-319.02
-315.94
-303.44
-286.24
-269.32
-256.18
-247.64
-241.69
-234.44
-221.94
-201.88
-174.57
-142.61
-109.62
-78.49
-50.10
-23.07
5.31
37.40
73.69
112.14
148.80
179.42
201.16
213.81
219.56
221.72
223.02
224.15
223.41
217.47
203.09
179.05
147.31
112.66
81.09
57.33
43.04
36.39
33.10
28.23
17.67
-1.00
-27.93
-60.79
-94.68
-122.68
-137.47
-133.92
-111.55
-75.48
-34.95
0.16
23.05
32.20
30.93
24.95
19.40
16.97
17.77
20.39
23.16
24.93
25.09
23.30
19.28
12.77
3.81
-6.96
-18.28
-28.59
-36.41
-40.68
-40.96
-37.42
-30.92
-22.61
-13.45
-3.76
6.96
19.65
34.99
52.82
71.68
88.84
101.24
106.80
105.39
99.08
91.26
85.62
85.15
91.12
102.53
116.61
129.80
138.91
141.94
138.00
127.54
112.33
94.53
75.87
57.33
39.29
21.72
4.16
-15.08
-38.38
-69.80
-109.37
-151.99
-189.01
-212.54
-218.99
-209.85
-191.42
-174.24
-162.71
-157.32
-155.97
-155.33
-152.12
-144.07
-126.43
-98.71
-63.47
-25.14
10.94
39.41
55.93
58.29
47.30
26.88
2.26
-20.02
-36.51
-45.56
-47.73
-45.49
-42.10
-40.39
-41.79
-46.59
-53.38
-59.61
-62.31
-59.24
-49.57
-34.13
-15.05
4.98
23.09
37.19
46.25
50.47
51.01
49.99
50.30
55.14
67.05
86.96
113.90
145.27
177.75
208.02
233.39
252.08
263.26
266.96
263.92
255.53
243.40
229.04
213.39
196.83
179.46
161.64
144.14
127.88
113.42
100.49
87.93
73.93
56.71
34.95
8.21
-23.03
-57.54
-93.76
-129.86
-163.87
-193.50
-216.30
-230.03
-233.54
-227.26
-213.15
-193.95
-171.93
-147.87
-121.05
-90.08
-54.71
-17.15
17.53
42.92
53.70
48.01
28.61
1.87
-24.70
-45.21
-57.24
-61.90
-62.42
-61.94
-62.13
-62.89
-63.39
-63.31
-63.39
-65.11
-69.61
-76.70
-84.89
-91.83
-95.53
-95.14
-91.16
-84.90
-77.62
-69.99
-61.95
-53.24
-44.01
-35.12
-27.89
-23.44
-22.06
-23.09
-25.33
-27.69
-29.64
-31.22
-32.63
-33.81
-34.31
-33.57
-31.25
-27.61
-23.32
-19.26
-15.98
-13.59
-11.81
-10.28
-8.79
-7.41
-6.37
-5.88
-5.90
-6.13
-6.09
-5.41
-3.92
-1.80
0.45
2.33
3.41
3.63
3.24
2.64
2.17
1.89
1.50
0.53
-1.48
-4.63
-8.57
-12.56
-15.73
-17.42
-17.29
-15.48
-12.36
-8.38
-3.96
0.54
4.68
8.02
10.08
10.63
9.77
8.01
6.07
4.57
3.85
3.85
4.20
4.52
4.58
4.41
4.19
4.11
4.21
4.38
4.36
3.89
2.68
0.52
-2.68
-6.82
-11.55
-16.24
-20.07
-22.30
-22.41
-20.31
-16.30
-11.01
-5.20
0.43
5.32
9.13
11.67
12.94
13.02
12.07
10.42
8.46
6.60
5.16
4.27
3.82
3.61
3.42
3.13
2.73
2.24
1.65
0.90
-0.14
-1.61
-3.60
-6.17
-9.29
-12.74
-16.07
-18.66
-19.79
-18.95
-15.98
-11.22
-5.35
0.78
6.43
11.15
14.70
17.08
18.39
18.78
18.50
17.81
17.02
16.37
16.01
15.93
16.04
16.15
16.06
15.62
14.80
13.66
12.37
11.06
9.73
8.20
6.09
3.04
-1.16
-6.22
-11.46
-15.87
-18.47
-18.67
-16.41
-12.18
-6.77
-1.05
4.32
8.97
12.72
15.55
17.42
18.25
18.02
16.80
14.88
12.78
11.04
10.15
10.34
11.48
13.22
15.11
16.90
18.53
20.17
21.99
24.01
26.04
27.69
28.64
28.73
27.98
26.52
24.47
21.85
18.74
15.39
12.30
10.20
9.76
11.39
15.00
20.07
25.76
31.27
35.95
39.50
41.82
42.96
43.03
42.11
40.34
37.97
35.38
33.00
31.23
30.29
30.18
30.67
31.42
32.02
32.24
31.97
31.23
30.12
28.70
26.97
24.91
22.52
19.92
17.23
14.54
11.90
9.28
6.73
4.45
2.88
2.51
3.78
6.86
11.57
17.44
23.87
30.21
35.82
40.19
42.99
44.03
43.43
41.58
39.04
36.40
34.15
32.60
31.79
31.56
31.62
31.65
31.27
30.21
28.25
25.38
21.79
17.91
14.27
11.30
9.23
7.80
6.55
4.88
2.46
-0.58
-3.69
-6.08
-7.06
-6.36
-4.14
-0.93
2.62
5.91
8.45
9.91
10.00
8.48
5.24
0.48
-5.31
-11.36
-16.80
-21.00
-23.78
-25.38
-26.41
-27.48
-28.98
-30.95
-33.20
-35.39
-37.29
-38.92
-40.36
-41.79
-43.35
-45.13
-47.20
-49.63
-52.42
-55.36
-57.96
-59.44
-58.98
-56.07
-50.73
-43.59
-35.65
-27.93
-21.16
-15.64
-11.32
-8.02
-5.65
-4.23
-3.81
-4.32
-5.47
-6.76
-7.71
-7.97
-7.50
-6.53
-5.43
-4.56
-4.13
-4.12
-4.41
-4.85
-5.38
-6.06
-7.06
-8.56
-10.71
-13.56
-17.03
-20.90
-24.78
-28.14
-30.39
-31.01
-29.69
-26.42
-21.57
-15.69
-9.46
-3.55
1.53
5.42
7.94
9.08
9.01
8.11
6.82
5.63
4.89
4.74
5.11
5.74
6.37
6.81
6.94
6.78
6.36
5.75
4.98
4.08
3.10
2.03
0.82
-0.71
-2.77
-5.57
-9.15
-13.26
-17.35
-20.61
-22.25
-21.72
-19.00
-14.54
-9.12
-3.57
1.51
5.88
9.48
12.31
14.29
15.18
14.85
13.34
11.03
8.50
6.34
4.94
4.32
4.26
4.44
4.61
4.68
4.69
4.67
4.55
4.22
3.50
2.32
0.70
-1.24
-3.44
-5.90
-8.65
-11.72
-14.94
-17.92
-20.10
-20.90
-19.89
-17.00
-12.56
-7.19
-1.67
3.30
7.25
9.96
11.45
11.85
11.32
10.04
8.28
6.37
4.64
3.35
2.55
2.10
1.81
1.49
1.08
0.64
0.23
-0.14
-0.58
-1.24
-2.25
-3.66
-5.43
-7.49
-9.71
-11.95
-13.97
-15.45
-16.07
-15.55
-13.78
-10.79
-6.89
-2.50
1.90
5.85
9.01
11.15
12.19
12.16
11.21
9.66
7.88
6.34
5.35
4.99
5.13
5.42
5.54
5.31
4.70
3.83
2.84
1.75
0.52
-0.91
-2.66
-4.77
-7.25
-10.08
-13.11
-16.07
-18.58
-20.19
-20.47
-19.22
-16.40
-12.34
-7.49
-2.45
2.25
6.17
9.08
10.91
11.69
11.50
10.53
9.01
7.31
5.81
4.83
4.47
4.63
4.99
5.23
5.13
4.66
3.97
3.26
2.66
2.19
1.70
0.94
-0.39
-2.56
-5.61
-9.32
-13.20
-16.52
-18.63
-19.10
-17.84
-15.03
-11.03
-6.26
-1.16
3.84
8.23
11.53
13.35
13.55
12.29
10.07
7.58
5.46
4.16
3.78
4.18
5.01
5.84
6.40
6.49
6.13
5.38
4.37
3.20
1.85
0.33
-1.41
-3.39
-5.62
-8.14
-10.93
-13.96
-17.01
-19.69
-21.40
-21.57
-19.81
-16.19
-11.18
-5.62
-0.35
4.00
7.14
9.14
10.22
10.53
10.16
9.06
7.29
5.08
2.82
0.97
-0.12
-0.41
-0.14
0.24
0.27
-0.28
-1.44
-3.04
-4.83
-6.63
-8.36
-10.02
-11.59
-13.07
-14.39
-15.45
-16.17
-16.46
-16.20
-15.24
-13.45
-10.75
-7.18
-2.92
1.80
6.72
11.65
16.35
20.63
24.19
26.70
27.92
27.78
26.42
24.19
21.55
18.85
16.37
14.19
12.33
10.81
9.65
8.94
8.66
8.71
8.87
8.87
8.47
7.47
5.81
3.53
0.73
-2.34
-5.34
-7.84
-9.43
-9.80
-8.84
-6.70
-3.75
-0.38
3.05
6.31
9.26
11.80
13.82
15.19
15.86
15.84
15.31
14.58
13.96
13.72
13.88
14.31
14.75
14.96
14.88
14.57
14.18
13.83
13.48
12.98
12.04
10.42
7.99
4.85
1.29
-2.27
-5.29
-7.26
-7.78
-6.67
-4.02
-0.17
4.38
9.07
13.38
16.90
19.36
20.65
20.78
19.89
18.24
16.12
13.79
11.44
9.16
7.00
4.95
3.08
1.44
0.10
-0.94
-1.68
-2.22
-2.62
-2.93
-3.22
-3.57
-4.17
-5.26
-7.05
-9.64
-12.85
-16.16
-18.90
-20.37
-20.11
-17.99
-14.31
-9.67
-4.77
-0.27
3.39
5.99
7.53
8.13
7.92
7.04
5.68
4.08
2.54
1.40
0.87
1.03
1.67
2.42
2.87
2.73
1.98
0.82
-0.40
-1.40
-2.12
-2.70
-3.43
-4.56
-6.23
-8.36
-10.73
-13.02
-14.90
-16.03
-16.14
-15.02
-12.65
-9.18
-4.95
-0.43
3.89
7.57
10.30
11.97
12.63
12.47
11.75
10.80
9.85
9.10
8.66
8.55
8.74
9.09
9.37
9.35
8.83
7.76
6.27
4.63
3.10
1.85
0.84
-0.09
-1.10
-2.35
-3.91
-5.75
-7.81
-9.95
-11.90
-13.34
-13.85
-13.14
-11.08
-7.80
-3.74
0.54
4.46
7.59
9.77
11.04
11.58
11.56
11.10
10.29
9.21
8.00
6.84
5.91
5.32
5.06
5.08
5.25
5.42
5.49
5.34
4.90
4.15
3.17
2.06
0.94
-0.15
-1.28
-2.56
-4.16
-6.13
-8.43
-10.84
-13.02
-14.61
-15.24
-14.72
-13.05
-10.45
-7.23
-3.69
-0.11
3.28
6.25
8.51
9.81
9.98
9.08
7.37
5.25
3.13
1.32
-0.03
-0.83
-1.03
-0.62
0.33
1.66
3.06
4.19
4.77
4.64
3.87
2.63
1.12
-0.47
-2.04
-3.59
-5.14
-6.67
-8.10
-9.25
-9.86
-9.65
-8.42
-6.11
-2.85
1.12
5.45
9.78
13.72
16.95
19.19
20.25
20.10
18.86
16.82
14.39
12.08
10.35
9.55
9.82
11.02
12.72
14.39
15.55
15.97
15.69
15.00
14.27
13.78
13.66
13.86
14.18
14.38
14.25
13.66
12.71
11.76
11.43
12.44
15.27
19.87
25.54
31.02
34.99
36.45
35.12
31.44
26.37
20.95
15.96
11.70
8.15
5.12
2.59
0.87
0.48
1.86
5.16
9.93
15.32
20.29
23.91
25.69
25.47
23.46
20.01
15.65
11.15
7.36
5.13
4.90
6.53
9.34
12.48
15.55
18.83
22.88
27.80
32.56
35.06
33.20
26.30
15.91
5.38
-1.65
-3.11
0.51
6.57
11.74
13.65
11.58
6.24
-1.27
-10.33
-20.79
-32.47
-44.52
-55.38
-63.28
-67.01
-66.58
-63.07
-58.28
-53.94
-51.12
-50.09
-50.41
-51.18
-51.41
-50.21
-47.01
-41.60
-34.18
-25.38
-16.15
-7.65
-1.00
3.03
4.15
2.58
-1.09
-6.17
-12.09
-18.52
-25.34
-32.46
-39.60
-46.37
-52.29
-57.05
-60.65
-63.40
-65.72
-67.89
-69.97
-71.77
-73.02
-73.62
-73.58
-73.09
-72.25
-71.01
-69.19
-66.54
-62.89
-58.16
-52.32
-45.33
-37.02
-27.25
-15.92
-3.11
10.84
25.42
39.86
53.25
64.56
72.77
77.30
78.12
76.00
72.24
68.31
65.25
63.43
62.57
62.10
61.55
60.79
59.98
59.25
58.51
57.33
55.26
51.98
47.56
42.35
36.73
30.92
24.86
18.40
11.54
4.62
-1.71
-6.70
-9.82
-11.01
-10.82
-10.30
-10.82
-13.72
-19.91
-29.59
-42.14
-56.20
-69.93
-81.47
-89.36
-92.77
-91.64
-86.51
-78.35
-68.31
-57.51
-47.01
-37.59
-29.77
-23.75
-19.40
-16.41
-14.47
-13.41
-13.29
-14.28
-16.50
-19.77
-23.54
-27.00
-29.41
-30.26
-29.55
-27.65
-25.15
-22.59
-20.24
-18.09
-15.96
-13.64
-10.92
-7.59
-3.33
2.07
8.62
15.85
23.00
29.30
34.30
38.11
41.19
43.99
46.57
48.45
48.95
47.63
44.59
40.54
36.49
33.25
31.20
30.27
30.14
30.53
31.31
32.53
34.20
36.28
38.50
40.48
41.80
42.24
41.77
40.54
38.79
36.69
34.33
31.66
28.67
25.43
22.06
18.81
15.86
13.36
11.29
9.57
8.05
6.61
5.13
3.62
2.13
0.78
-0.32
-1.17
-1.91
-2.79
-4.01
-5.67
-7.54
-9.20
-10.13
-9.94
-8.53
-6.10
-3.13
-0.14
2.36
4.04
4.65
4.13
2.58
0.24
-2.55
-5.39
-7.93
-9.89
-11.07
-11.37
-10.85
-9.69
-8.25
-6.98
-6.29
-6.36
-7.14
-8.34
-9.60
-10.63
-11.32
-11.76
-12.03
-12.14
-11.95
-11.25
-9.91
-7.98
-5.75
-3.60
-1.86
-0.70
-0.12
-0.03
-0.35
-1.06
-2.18
-3.67
-5.37
-6.97
-8.16
-8.74
-8.75
-8.42
-8.12
-8.15
-8.62
-9.43
-10.27
-10.79
-10.73
-10.12
-9.21
-8.44
-8.21
-8.73
-9.88
-11.27
-12.39
-12.78
-12.16
-10.48
-7.85
-4.41
-0.35
4.09
8.59
12.75
16.11
18.41
19.56
19.77
19.33
18.51
17.46
16.20
14.72
13.06
11.34
9.72
8.23
6.84
5.37
3.68
1.69
-0.59
-3.06
-5.61
-8.21
-10.82
-13.51
-16.35
-19.37
-22.54
-25.66
-28.38
-30.24
-30.91
-30.24
-28.43
-25.88
-23.08
-20.44
-18.12
-16.12
-14.33
-12.73
-11.38
-10.46
-10.03
-10.02
-10.14
-10.02
-9.35
-8.04
-6.28
-4.41
-2.78
-1.54
-0.67
-0.02
0.57
1.12
1.53
1.68
1.50
1.00
0.25
-0.67
-1.72
-2.85
-3.94
-4.83
-5.27
-5.06
-4.03
-2.18
0.37
3.36
6.42
9.14
11.20
12.35
12.57
11.97
10.84
9.48
8.18
7.16
6.46
6.09
5.91
5.80
5.63
5.34
4.92
4.41
3.86
3.32
2.87
2.54
2.31
2.07
1.61
0.66
-0.92
-3.07
-5.43
-7.41
-8.40
-8.03
-6.27
-3.50
-0.30
2.74
5.25
7.09
8.40
9.35
10.06
10.54
10.67
10.37
9.58
8.42
7.08
5.81
4.83
4.23
4.04
4.20
4.60
5.13
5.62
5.96
5.96
5.49
4.49
3.05
1.33
-0.39
-1.90
-3.11
-3.99
-4.58
-4.82
-4.58
-3.70
-2.12
0.04
2.53
5.03
7.30
9.17
10.61
11.60
12.13
12.14
11.61
10.55
9.08
7.40
5.79
4.58
4.00
4.11
4.76
5.64
6.39
6.79
6.81
6.61
6.45
6.51
6.82
7.29
7.72
7.90
7.67
6.93
5.62
3.77
1.56
-0.74
-2.74
-4.08
-4.50
-3.88
-2.38
-0.38
1.57
2.90
3.18
2.27
0.43
-1.77
-3.64
-4.55
-4.23
-2.83
-0.95
0.62
1.16
0.29
-1.81
-4.45
-6.63
-7.44
-6.39
-3.66
-0.01
3.51
5.88
6.48
5.16
2.18
-1.95
-6.70
-11.55
-16.00
-19.56
-21.77
-22.26
-20.98
-18.22
-14.58
-10.78
-7.43
-4.84
-2.94
-1.37
0.38
2.69
5.75
9.41
13.25
16.76
19.44
20.93
21.13
20.16
18.32
16.01
13.64
11.56
10.00
9.10
8.83
8.99
9.20
8.96
7.75
5.26
1.52
-3.00
-7.54
-11.24
-13.46
-13.92
-12.76
-10.49
-7.71
-4.94
-2.56
-0.79
0.32
0.74
0.50
-0.31
-1.52
-2.86
-4.02
-4.73
-4.82
-4.29
-3.31
-2.17
-1.18
-0.56
-0.39
-0.53
-0.68
-0.43
0.55
2.36
4.69
6.84
7.86
6.93
3.73
-1.36
-7.31
-12.78
-16.56
-18.02
-17.17
-14.62
-11.18
-7.57
-4.25
-1.35
1.12
3.15
4.63
5.43
5.46
4.83
3.84
2.89
2.36
2.41
2.94
3.71
4.40
4.86
5.08
5.22
5.44
5.78
6.16
6.37
6.23
5.66
4.70
3.47
2.06
0.55
-1.01
-2.52
-3.77
-4.51
-4.53
-3.77
-2.37
-0.65
1.03
2.40
3.32
3.79
3.87
3.56
2.82
1.59
-0.09
-2.02
-3.93
-5.46
-6.38
-6.63
-6.33
-5.76
-5.20
-4.86
-4.84
-5.09
-5.49
-5.86
-6.03
-5.91
-5.52
-4.99
-4.47
-4.13
-4.03
-4.12
-4.29
-4.41
-4.36
-4.09
-3.56
-2.73
-1.60
-0.18
1.41
2.98
4.29
5.13
5.35
4.90
3.83
2.20
0.15
-2.13
-4.44
-6.53
-8.19
-9.21
-9.46
-8.85
-7.41
-5.32
-2.87
-0.45
1.60
3.07
3.89
4.13
3.86
3.06
1.65
-0.40
-2.93
-5.52
-7.58
-8.57
-8.19
-6.54
-4.02
-1.17
1.53
3.79
5.51
6.76
7.65
8.28
8.69
8.85
8.75
8.41
7.88
7.29
6.77
6.40
6.16
5.96
5.67
5.19
4.53
3.78
3.12
2.68
2.55
2.68
2.94
3.08
2.85
2.08
0.78
-0.85
-2.46
-3.67
-4.28
-4.22
-3.61
-2.65
-1.51
-0.33
0.82
1.89
2.84
3.66
4.41
5.10
5.74
6.21
6.36
6.09
5.41
4.46
3.48
2.69
2.18
1.92
1.78
1.64
1.44
1.18
0.86
0.44
-0.18
-1.15
-2.57
-4.44
-6.70
-9.17
-11.69
-14.03
-15.97
-17.26
-17.67
-17.04
-15.40
-12.90
-9.86
-6.61
-3.48
-0.69
1.62
3.35
4.47
4.97
4.90
4.42
3.73
3.11
2.74
2.76
3.10
3.60
3.97
3.96
3.44
2.49
1.34
0.26
-0.55
-1.03
-1.27
-1.41
-1.55
-1.80
-2.20
-2.77
-3.49
-4.22
-4.75
-4.78
-4.10
-2.65
-0.56
1.84
4.22
6.29
7.88
8.98
9.61
9.79
9.50
8.73
7.48
5.88
4.16
2.64
1.56
1.00
0.83
0.74
0.42
-0.27
-1.26
-2.29
-3.07
-3.48
-3.57
-3.59
-3.80
-4.34
-5.18
-6.18
-7.20
-8.13
-8.89
-9.40
-9.49
-8.97
-7.71
-5.73
-3.25
-0.60
1.89
3.97
5.60
6.78
7.53
7.87
7.82
7.48
7.04
6.74
6.73
7.05
7.57
8.09
8.42
8.44
8.16
7.64
6.97
6.22
5.43
4.62
3.75
2.77
1.56
0.04
-1.80
-3.85
-5.88
-7.57
-8.67
-9.00
-8.54
-7.36
-5.63
-3.53
-1.25
1.00
3.07
4.81
6.10
6.87
7.09
6.78
6.09
5.19
4.32
3.69
3.40
3.43
3.64
3.84
3.89
3.75
3.43
3.02
2.60
2.21
1.85
1.49
1.05
0.46
-0.39
-1.56
-3.07
-4.85
-6.72
-8.46
-9.82
-10.57
-10.51
-9.61
-7.95
-5.75
-3.36
-1.15
0.66
1.96
2.83
3.42
3.84
4.13
4.21
4.00
3.49
2.86
2.35
2.19
2.46
3.01
3.60
3.92
3.84
3.40
2.78
2.17
1.67
1.21
0.70
0.06
-0.68
-1.41
-2.04
-2.61
-3.22
-4.00
-4.91
-5.70
-5.94
-5.29
-3.63
-1.22
1.38
3.60
5.07
5.76
5.95
6.00
6.14
6.37
6.55
6.46
6.06
5.47
4.91
4.55
4.44
4.44
4.34
4.03
3.51
2.92
2.42
2.13
2.03
2.02
1.90
1.55
0.91
0.07
-0.86
-1.78
-2.63
-3.44
-4.20
-4.82
-5.11
-4.81
-3.77
-2.05
0.09
2.15
3.71
4.49
4.49
3.97
3.28
2.72
2.43
2.39
2.46
2.52
2.52
2.47
2.40
2.35
2.30
2.19
1.97
1.69
1.43
1.25
1.19
1.17
1.03
0.59
-0.28
-1.58
-3.25
-5.11
-6.94
-8.50
-9.56
-9.93
-9.53
-8.41
-6.75
-4.80
-2.85
-1.13
0.23
1.18
1.73
1.90
1.70
1.16
0.36
-0.58
-1.46
-2.13
-2.50
-2.63
-2.61
-2.54
-2.52
-2.54
-2.60
-2.70
-2.88
-3.15
-3.52
-3.89
-4.19
-4.34
-4.38
-4.40
-4.60
-5.12
-6.03
-7.25
-8.53
-9.53
-9.92
-9.49
-8.22
-6.31
-4.07
-1.85
0.08
1.55
2.47
2.86
2.78
2.35
1.74
1.11
0.62
0.35
0.33
0.49
0.80
1.21
1.65
2.02
2.22
2.13
1.71
0.99
0.10
-0.88
-1.91
-3.04
-4.31
-5.73
-7.21
-8.61
-9.83
-10.86
-11.79
-12.69
-13.56
-14.24
-14.52
-14.18
-13.18
-11.59
-9.62
-7.50
-5.46
-3.66
-2.24
-1.26
-0.73
-0.58
-0.65
-0.80
-0.93
-0.97
-0.90
-0.70
-0.34
0.22
1.00
1.93
2.85
3.56
3.93
3.92
3.62
3.18
2.71
2.22
1.68
1.00
0.19
-0.74
-1.72
-2.71
-3.70
-4.64
-5.43
-5.88
-5.84
-5.23
-4.12
-2.73
-1.28
0.02
1.05
1.77
2.19
2.29
2.08
1.57
0.87
0.16
-0.35
-0.42
0.11
1.23
2.80
4.52
6.04
7.02
7.31
6.89
5.94
4.66
3.23
1.74
0.25
-1.21
-2.60
-3.85
-4.97
-6.02
-7.09
-8.20
-9.24
-9.95
-10.00
-9.18
-7.48
-5.17
-2.63
-0.25
1.74
3.21
4.18
4.66
4.64
4.16
3.28
2.20
1.19
0.52
0.35
0.69
1.41
2.28
3.06
3.57
3.78
3.74
3.60
3.46
3.35
3.17
2.80
2.09
1.03
-0.27
-1.66
-2.96
-4.09
-5.04
-5.80
-6.32
-6.45
-6.07
-5.09
-3.60
-1.81
-0.01
1.55
2.73
3.56
4.14
4.57
4.94
5.25
5.46
5.56
5.56
5.52
5.46
5.39
5.29
5.09
4.79
4.42
4.05
3.77
3.62
3.54
3.41
3.09
2.47
1.49
0.17
-1.42
-3.20
-5.00
-6.57
-7.64
-7.96
-7.41
-6.07
-4.22
-2.24
-0.44
1.00
2.04
2.75
3.22
3.48
3.56
3.48
3.33
3.25
3.35
3.68
4.18
4.73
5.20
5.46
5.48
5.29
5.00
4.69
4.44
4.23
4.01
3.70
3.20
2.47
1.51
0.33
-1.06
-2.68
-4.46
-6.27
-7.84
-8.80
-8.86
-7.88
-6.00
-3.56
-0.99
1.38
3.39
5.00
6.21
6.90
6.95
6.25
4.91
3.22
1.58
0.31
-0.44
-0.73
-0.72
-0.62
-0.53
-0.45
-0.40
-0.41
-0.55
-0.86
-1.33
-1.89
-2.49
-3.09
-3.72
-4.48
-5.45
-6.61
-7.84
-8.87
-9.45
-9.37
-8.52
-6.94
-4.77
-2.29
0.24
2.49
4.25
5.40
5.96
6.03
5.80
5.36
4.80
4.16
3.53
3.04
2.81
2.92
3.28
3.71
4.00
3.99
3.68
3.14
2.49
1.81
1.10
0.31
-0.67
-1.85
-3.20
-4.61
-5.92
-6.91
-7.37
-7.16
-6.23
-4.64
-2.59
-0.30
1.97
4.03
5.70
6.90
7.61
7.90
7.94
7.91
7.96
8.09
8.20
8.13
7.79
7.23
6.65
6.29
6.29
6.59
6.92
6.89
6.15
4.50
1.94
-1.35
-5.11
-9.07
-12.95
-16.51
-19.49
-21.64
-22.73
-22.60
-21.24
-18.79
-15.56
-11.88
-8.04
-4.21
-0.37
3.57
7.66
11.83
15.83
19.31
21.91
23.51
24.24
24.45
24.58
24.97
25.77
26.89
28.12
29.23
30.06
30.49
30.46
29.91
28.81
27.16
25.04
22.57
19.91
17.14
14.19
10.97
7.39
3.55
-0.19
-3.36
-5.47
-6.27
-5.83
-4.60
-3.23
-2.32
-2.30
-3.23
-4.90
-6.98
-9.14
-11.24
-13.26
-15.26
-17.29
-19.28
-21.01
-22.22
-22.70
-22.43
-21.59
-20.48
-19.38
-18.47
-17.69
-16.82
-15.53
-13.53
-10.63
-6.86
-2.54
1.75
5.23
7.04
6.54
3.48
-1.77
-8.25
-14.62
-19.55
-22.14
-22.12
-19.96
-16.56
-12.98
-10.09
-8.36
-7.86
-8.36
-9.54
-10.99
-12.40
-13.49
-14.02
-13.79
-12.71
-10.85
-8.42
-5.72
-3.06
-0.64
1.44
3.18
4.49
5.27
5.35
4.66
3.36
1.82
0.55
-0.04
0.21
1.10
2.26
3.26
3.85
4.00
3.85
3.58
3.33
3.16
3.04
2.90
2.61
2.08
1.23
0.05
-1.36
-2.85
-4.24
-5.42
-6.34
-7.05
-7.60
-7.98
-8.07
-7.66
-6.44
-4.13
-0.48
4.63
11.19
19.00
27.75
37.02
46.30
55.06
62.82
69.16
73.77
76.59
77.85
78.07
77.97
78.38
80.03
83.38
88.48
94.89
101.67
107.61
111.46
112.27
109.75
104.26
96.71
88.16
79.49
71.04
62.74
54.27
45.44
36.44
27.76
20.02
13.69
8.82
5.12
2.09
-0.72
-3.59
-6.58
-9.65
-12.69
-15.64
-18.52
-21.53
-25.02
-29.36
-34.70
-40.61
-46.01
-49.41
-49.47
-45.57
-38.18
-28.64
-18.68
-9.76
-2.74
2.11
4.96
6.04
5.68
4.30
2.53
1.17
0.95
2.29
5.08
8.68
12.17
14.59
15.32
14.20
11.53
7.87
3.86
-0.02
-3.45
-6.27
-8.36
-9.61
-9.99
-9.60
-8.76
-7.94
-7.60
-7.97
-9.03
-10.47
-11.88
-12.99
-13.79
-14.62
-15.97
-18.30
-21.75
-25.95
-30.08
-33.06
-34.05
-32.86
-30.16
-27.48
-26.59
-28.85
-34.43
-42.02
-49.09
-52.81
-51.19
-43.93
-32.60
-20.15
-9.78
-3.90
-3.46
-7.83
-14.98
-22.13
-26.43
-25.71
-19.24
-8.22
4.49
15.29
21.14
20.88
15.48
7.44
-0.51
-6.65
-10.71
-13.50
-16.00
-18.68
-21.33
-23.48
-24.90
-25.83
-26.90
-28.65
-31.23
-34.37
-37.55
-40.42
-42.94
-45.37
-48.13
-51.52
-55.61
-60.16
-64.73
-68.71
-71.50
-72.75
-72.44
-70.95
-68.97
-67.09
-65.47
-63.59
-60.45
-55.10
-47.32
-38.04
-29.07
-22.41
-19.25
-19.37
-21.23
-22.65
-21.80
-17.89
-11.26
-2.91
6.10
15.02
23.45
31.04
37.24
41.25
42.30
40.10
35.01
28.07
20.57
13.57
7.61
2.58
-1.93
-6.30
-10.55
-14.31
-17.02
-18.29
-18.11
-16.91
-15.39
-14.18
-13.69
-14.01
-14.99
-16.35
-17.88
-19.42
-20.94
-22.39
-23.68
-24.64
-25.06
-24.79
-23.77
-22.12
-20.07
-17.86
-15.68
-13.59
-11.53
-9.41
-7.14
-4.74
-2.32
-0.01
2.02
3.70
5.00
5.96
6.67
7.18
7.52
7.64
7.50
7.06
6.39
5.57
4.72
3.87
2.97
1.88
0.45
-1.42
-3.67
-6.08
-8.32
-10.06
-11.11
-11.41
-11.07
-10.22
-8.92
-7.18
-5.01
-2.51
0.01
2.17
3.62
4.20
4.02
3.46
2.88
2.56
2.53
2.67
2.82
2.96
3.16
3.55
4.16
4.89
5.53
5.86
5.78
5.32
4.63
3.83
2.96
1.94
0.63
-1.08
-3.15
-5.42
-7.60
-9.38
-10.46
-10.68
-10.04
-8.62
-6.63
-4.26
-1.69
0.88
3.20
5.07
6.30
6.81
6.67
6.05
5.22
4.47
4.02
4.00
4.35
4.88
5.33
5.51
5.38
5.05
4.74
4.57
4.50
4.32
3.77
2.69
1.05
-1.00
-3.24
-5.46
-7.50
-9.21
-10.40
-10.85
-10.43
-9.11
-7.03
-4.49
-1.83
0.59
2.56
3.98
4.91
5.49
5.83
6.01
6.07
5.98
5.75
5.45
5.15
4.95
4.88
4.95
5.07
5.12
4.99
4.61
4.00
3.21
2.34
1.42
0.38
-0.95
-2.74
-5.06
-7.71
-10.32
-12.39
-13.52
-13.54
-12.51
-10.69
-8.41
-5.94
-3.50
-1.25
0.70
2.24
3.24
3.66
3.54
3.02
2.36
1.80
1.54
1.62
1.93
2.26
2.39
2.27
1.97
1.69
1.55
1.56
1.58
1.41
0.90
-0.04
-1.37
-3.05
-4.99
-7.02
-8.94
-10.43
-11.16
-10.91
-9.63
-7.49
-4.82
-1.97
0.76
3.18
5.21
6.83
8.02
8.72
8.85
8.38
7.36
5.99
4.64
3.67
3.37
3.75
4.58
5.43
5.88
5.74
5.05
4.13
3.29
2.76
2.49
2.21
1.57
0.35
-1.48
-3.69
-5.91
-7.79
-9.02
-9.45
-9.00
-7.65
-5.40
-2.41
1.01
4.41
7.28
9.24
10.17
10.24
9.84
9.33
8.98
8.88
8.98
9.17
9.36
9.51
9.60
9.60
9.43
9.01
8.35
7.48
6.48
5.50
4.62
3.85
3.11
2.24
1.08
-0.50
-2.46
-4.58
-6.54
-7.96
-8.52
-8.03
-6.53
-4.21
-1.38
1.60
4.44
6.95
9.07
10.83
12.24
13.29
13.86
13.85
13.23
12.19
11.08
10.27
9.98
10.17
10.54
10.74
10.49
9.77
8.76
7.68
6.70
5.80
4.84
3.65
2.16
0.40
-1.58
-3.67
-5.82
-7.90
-9.65
-10.78
-10.97
-10.06
-8.06
-5.23
-1.95
1.35
4.32
6.72
8.45
9.57
10.12
10.19
9.82
9.04
7.89
6.51
5.07
3.81
2.93
2.49
2.41
2.44
2.28
1.74
0.80
-0.43
-1.73
-2.97
-4.10
-5.23
-6.48
-7.95
-9.66
-11.54
-13.52
-15.53
-17.44
-19.00
-19.87
-19.71
-18.32
-15.77
-12.42
-8.79
-5.35
-2.40
-0.05
1.74
3.03
3.89
4.38
4.65
4.93
5.53
6.66
8.33
10.37
12.43
14.17
15.37
16.05
16.34
16.41
16.32
15.96
15.16
13.81
11.97
9.87
7.84
6.13
4.84
3.93
3.30
2.97
3.03
3.69
5.05
6.99
9.22
11.37
13.18
14.58
15.66
16.55
17.29
17.79
17.87
17.44
16.59
15.55
14.69
14.27
14.38
14.90
15.56
16.08
16.32
16.28
16.05
15.73
15.33
14.77
13.99
13.00
11.87
10.72
9.60
8.46
7.18
5.65
3.86
2.01
0.38
-0.64
-0.81
-0.04
1.50
3.47
5.44
7.04
8.03
8.38
8.18
7.64
6.88
5.96
4.87
3.63
2.35
1.23
0.50
0.26
0.41
0.71
0.84
0.61
-0.00
-0.83
-1.65
-2.27
-2.66
-2.94
-3.30
-3.89
-4.79
-5.97
-7.37
-8.91
-10.54
-12.15
-13.60
-14.67
-15.09
-14.67
-13.35
-11.31
-8.88
-6.48
-4.43
-2.87
-1.74
-0.90
-0.25
0.20
0.31
-0.04
-0.84
-1.89
-2.86
-3.31
-3.00
-1.85
-0.07
1.97
3.85
5.19
5.80
5.72
5.09
4.13
3.02
1.81
0.49
-1.03
-2.73
-4.51
-6.18
-7.45
-8.11
-8.01
-7.11
-5.43
-3.00
0.12
3.80
7.76
11.55
14.62
16.54
17.11
16.45
14.90
12.90
10.78
8.78
7.03
5.63
4.66
4.14
3.99
4.02
3.98
3.70
3.11
2.34
1.53
0.83
0.29
-0.17
-0.70
-1.48
-2.64
-4.25
-6.20
-8.20
-9.83
-10.64
-10.31
-8.81
-6.41
-3.64
-1.01
1.08
2.50
3.32
3.73
3.89
3.87
3.63
3.15
2.39
1.44
0.43
-0.50
-1.23
-1.72
-2.00
-2.06
-1.92
-1.56
-0.97
-0.26
0.44
0.89
0.88
0.32
-0.77
-2.29
-4.07
-5.98
-7.89
-9.58
-10.78
-11.17
-10.47
-8.63
-5.92
-2.78
0.27
2.81
4.69
5.93
6.61
6.84
6.67
6.12
5.24
4.17
3.05
2.06
1.33
0.92
0.83
1.01
1.30
1.55
1.62
1.45
1.08
0.63
0.19
-0.26
-0.88
-1.84
-3.23
-4.94
-6.67
-7.96
-8.41
-7.79
-6.17
-3.86
-1.28
1.22
3.41
5.26
6.81
8.05
8.91
9.27
9.08
8.38
7.36
6.22
5.16
4.28
3.64
3.21
2.97
2.88
2.88
2.89
2.88
2.78
2.57
2.25
1.82
1.30
0.63
-0.26
-1.48
-3.10
-5.07
-7.17
-9.04
-10.26
-10.56
-9.84
-8.24
-6.04
-3.55
-1.02
1.34
3.35
4.89
5.84
6.16
5.91
5.19
4.14
2.92
1.71
0.70
0.06
-0.12
0.11
0.58
1.10
1.47
1.61
1.56
1.36
1.05
0.59
-0.12
-1.18
-2.60
-4.30
-6.09
-7.68
-8.73
-8.97
-8.28
-6.72
-4.52
-1.99
0.58
2.98
5.10
6.87
8.18
8.91
8.93
8.24
6.97
5.37
3.79
2.51
1.67
1.26
1.15
1.24
1.45
1.75
2.09
2.36
2.43
2.13
1.45
0.39
-1.00
-2.69
-4.62
-6.69
-8.59
-9.87
-10.11
-9.05
-6.80
-3.75
-0.44
2.71
5.43
7.65
9.32
10.33
10.57
10.03
8.88
7.42
6.01
4.89
4.17
3.77
3.56
3.39
3.15
2.80
2.39
1.98
1.68
1.51
1.40
1.20
0.69
-0.28
-1.78
-3.74
-5.95
-8.10
-9.82
-10.74
-10.60
-9.32
-7.07
-4.25
-1.32
1.32
3.47
5.12
6.34
7.15
7.50
7.32
6.60
5.53
4.36
3.43
2.95
2.95
3.29
3.70
3.93
3.84
3.45
2.89
2.35
1.96
1.69
1.36
0.73
-0.40
-2.06
-4.03
-5.94
-7.38
-8.03
-7.78
-6.69
-4.96
-2.81
-0.44
1.96
4.20
6.13
7.55
8.34
8.49
8.04
7.18
6.07
4.90
3.83
2.91
2.21
1.75
1.58
1.71
2.11
2.67
3.23
3.62
3.67
3.31
2.53
1.38
-0.02
-1.61
-3.33
-5.14
-7.01
-8.83
-10.34
-11.22
-11.12
-9.92
-7.70
-4.84
-1.80
1.02
3.38
5.25
6.66
7.65
8.19
8.21
7.72
6.88
5.93
5.14
4.69
4.57
4.62
4.61
4.34
3.76
2.93
2.00
1.13
0.35
-0.42
-1.32
-2.51
-4.05
-5.85
-7.75
-9.57
-11.13
-12.33
-13.08
-13.28
-12.83
-11.72
-10.01
-7.96
-5.90
-4.23
-3.22
-2.96
-3.37
-4.24
-5.32
-6.42
-7.39
-8.16
-8.70
-9.05
-9.29
-9.54
-9.85
-10.01
-9.54
-7.73
-3.91
2.32
10.88
21.25
32.56
43.93
54.59
64.01
71.92
78.25
83.12
86.74
89.43
91.47
93.09
94.35
95.19
95.44
94.95
93.55
91.16
87.76
83.42
78.30
72.60
66.58
60.47
54.40
48.33
42.19
35.91
29.52
23.26
17.44
12.37
8.19
4.80
1.93
-0.72
-3.36
-5.99
-8.52
-10.89
-13.11
-15.30
-17.59
-20.01
-22.48
-24.79
-26.70
-28.01
-28.57
-28.31
-27.25
-25.47
-23.14
-20.45
-17.56
-14.54
-11.42
-8.25
-5.17
-2.46
-0.43
0.73
1.14
1.15
1.32
2.05
3.46
5.24
6.80
7.52
7.03
5.31
2.71
-0.27
-3.11
-5.54
-7.52
-9.26
-11.05
-13.18
-15.68
-18.36
-20.71
-22.19
-22.36
-21.22
-19.19
-17.01
-15.32
-14.41
-14.06
-13.59
-12.36
-10.11
-7.34
-5.30
-5.77
-10.47
-20.45
-35.39
-53.38
-70.98
-84.05
-88.91
-83.38
-67.56
-44.01
-17.26
7.17
24.10
30.21
25.15
11.86
-4.34
-17.60
-23.66
-21.32
-12.51
-0.96
9.73
17.53
22.33
25.16
27.05
28.29
28.54
27.35
24.66
20.84
16.30
11.17
5.16
-2.08
-10.57
-19.63
-28.05
-34.49
-38.03
-38.61
-36.94
-34.30
-31.99
-30.95
-31.52
-33.45
-36.11
-38.78
-40.83
-41.90
-41.96
-41.24
-40.11
-38.95
-38.08
-37.55
-37.15
-36.49
-35.06
-32.42
-28.30
-22.70
-15.84
-8.22
-0.49
6.58
12.34
16.38
18.66
19.46
19.29
18.67
18.01
17.54
17.26
17.05
16.74
16.24
15.56
14.81
14.13
13.65
13.39
13.22
12.93
12.25
10.88
8.60
5.29
1.04
-3.78
-8.60
-12.72
-15.57
-16.88
-16.74
-15.54
-13.79
-11.96
-10.39
-9.25
-8.62
-8.44
-8.64
-9.09
-9.64
-10.17
-10.64
-11.01
-11.29
-11.48
-11.59
-11.63
-11.62
-11.60
-11.52
-11.32
-10.96
-10.45
-9.92
-9.59
-9.68
-10.32
-11.44
-12.82
-14.14
-15.14
-15.67
-15.72
-15.31
-14.45
-13.07
-11.12
-8.64
-5.82
-2.97
-0.46
1.46
2.69
3.29
3.37
3.07
2.46
1.66
0.73
-0.20
-1.03
-1.68
-2.14
-2.43
-2.65
-2.98
-3.52
-4.38
-5.54
-6.88
-8.19
-9.30
-10.13
-10.76
-11.44
-12.39
-13.75
-15.41
-17.08
-18.40
-19.07
-18.91
-17.93
-16.23
-14.01
-11.49
-8.95
-6.70
-5.07
-4.27
-4.29
-4.94
-5.84
-6.62
-7.02
-6.98
-6.55
-5.86
-5.06
-4.27
-3.58
-3.09
-2.81
-2.70
-2.70
-2.72
-2.78
-2.96
-3.39
-4.21
-5.43
-6.95
-8.58
-10.11
-11.38
-12.28
-12.69
-12.54
-11.75
-10.32
-8.35
-6.12
-3.91
-2.01
-0.50
0.66
1.58
2.39
3.05
3.48
3.61
3.43
3.05
2.62
2.27
2.08
2.05
2.18
2.45
2.83
3.26
3.59
3.69
3.49
2.96
2.21
1.31
0.31
-0.79
-2.00
-3.32
-4.61
-5.63
-6.16
-5.98
-5.06
-3.50
-1.52
0.63
2.74
4.66
6.30
7.58
8.44
8.83
8.73
8.21
7.39
6.42
5.45
4.59
3.93
3.51
3.34
3.42
3.67
3.95
4.16
4.14
3.85
3.31
2.55
1.66
0.66
-0.53
-2.02
-3.88
-6.07
-8.36
-10.42
-11.89
-12.59
-12.50
-11.85
-10.87
-9.78
-8.68
-7.56
-6.40
-5.23
-4.15
-3.33
-2.98
-3.24
-4.21
-5.75
-7.53
-9.05
-9.89
-9.89
-9.35
-8.96
-9.50
-11.50
-14.99
-19.38
-23.71
-26.97
-28.44
-27.77
-25.04
-20.50
-14.60
-7.87
-0.90
5.72
11.63
16.76
21.41
26.03
30.90
35.91
40.48
43.84
45.37
45.00
43.24
40.92
38.70
36.70
34.35
30.73
25.22
17.99
10.25
3.89
0.79
2.04
7.48
15.78
24.88
32.75
37.93
39.76
38.36
34.30
28.31
21.06
13.07
4.79
-3.33
-10.72
-16.72
-20.65
-22.09
-21.07
-18.14
-14.28
-10.52
-7.60
-5.76
-4.73
-4.01
-3.17
-2.09
-0.92
0.06
0.62
0.80
0.83
1.01
1.56
2.56
3.98
5.73
7.70
9.73
11.53
12.74
12.95
11.98
9.96
7.36
4.72
2.53
1.00
0.02
-0.64
-1.22
-1.85
-2.53
-3.21
-3.82
-4.27
-4.40
-4.05
-3.13
-1.71
-0.03
1.59
2.93
3.91
4.61
5.11
5.42
5.42
5.04
4.33
3.50
2.85
2.53
2.46
2.34
1.86
0.94
-0.23
-1.23
-1.72
-1.65
-1.31
-1.20
-1.82
-3.40
-5.88
-8.98
-12.26
-15.23
-17.42
-18.37
-17.82
-15.71
-12.32
-8.22
-4.11
-0.59
2.01
3.58
4.31
4.46
4.27
3.91
3.46
2.96
2.46
2.01
1.66
1.49
1.51
1.66
1.85
1.90
1.69
1.14
0.27
-0.78
-1.84
-2.81
-3.64
-4.37
-5.15
-6.18
-7.57
-9.32
-11.21
-12.87
-13.87
-13.91
-12.87
-10.91
-8.33
-5.48
-2.65
-0.11
1.94
3.30
3.86
3.64
2.85
1.83
0.96
0.49
0.53
1.01
1.70
2.40
2.95
3.32
3.65
4.12
4.82
5.65
6.21
5.90
4.20
0.84
-3.97
-9.54
-14.85
-18.85
-20.71
-20.00
-16.80
-11.64
-5.39
1.02
6.82
11.56
15.16
17.81
19.71
21.02
21.76
21.87
21.35
20.34
19.06
17.72
16.47
15.38
14.48
13.89
13.73
14.12
15.00
16.13
17.07
17.38
16.78
15.28
13.13
10.73
8.43
6.37
4.54
2.76
0.94
-0.90
-2.55
-3.74
-4.27
-4.07
-3.29
-2.23
-1.15
-0.25
0.41
0.88
1.18
1.30
1.15
0.69
-0.04
-0.87
-1.59
-2.07
-2.26
-2.24
-2.13
-1.99
-1.80
-1.51
-1.10
-0.62
-0.16
0.18
0.33
0.32
0.19
-0.10
-0.63
-1.53
-2.98
-5.07
-7.80
-10.97
-14.17
-16.88
-18.57
-18.93
-17.95
-15.99
-13.56
-11.16
-9.11
-7.51
-6.38
-5.75
-5.71
-6.37
-7.73
-9.58
-11.55
-13.22
-14.23
-14.36
-13.61
-12.08
-9.96
-7.52
-5.06
-2.99
-1.78
-1.92
-3.68
-7.05
-11.58
-16.46
-20.74
-23.57
-24.48
-23.45
-20.87
-17.38
-13.63
-10.12
-7.10
-4.65
-2.71
-1.19
-0.03
0.79
1.23
1.24
0.78
-0.13
-1.44
-3.03
-4.76
-6.45
-7.84
-8.65
-8.65
-7.73
-6.01
-3.85
-1.76
-0.30
0.11
-0.61
-2.20
-4.16
-5.95
-7.26
-8.18
-9.11
-10.58
-12.86
-15.80
-18.74
-20.82
-21.27
-19.79
-16.73
-12.85
-9.10
-6.13
-4.14
-2.97
-2.33
-1.97
-1.90
-2.21
-2.91
-3.83
-4.57
-4.69
-3.87
-2.07
0.56
3.63
6.74
9.49
11.47
12.32
11.69
9.26
4.81
-1.57
-9.40
-17.80
-25.63
-31.81
-35.65
-37.01
-36.29
-34.10
-30.99
-27.27
-22.94
-18.02
-12.59
-6.91
-1.27
4.10
9.13
13.64
17.23
19.26
19.02
16.12
10.84
4.20
-2.27
-7.01
-8.88
-7.47
-3.17
3.00
9.72
15.56
19.24
19.79
16.71
10.15
0.88
-9.68
-20.01
-28.64
-34.66
-37.78
-38.23
-36.56
-33.37
-29.23
-24.55
-19.81
-15.38
-11.57
-8.51
-6.05
-3.86
-1.65
0.60
2.60
3.82
3.88
2.75
0.86
-1.10
-2.56
-3.36
-3.86
-4.69
-6.40
-9.12
-12.55
-16.15
-19.48
-22.52
-25.57
-29.07
-33.35
-38.30
-43.55
-48.60
-53.01
-56.48
-58.69
-59.17
-57.33
-52.61
-44.82
-34.21
-21.41
-6.97
8.94
26.60
46.48
68.61
92.32
116.09
138.12
156.96
172.02
183.57
192.23
198.32
201.49
200.86
195.61
185.49
171.17
153.90
134.95
115.13
94.55
72.90
49.97
25.93
1.49
-22.43
-44.99
-65.72
-84.34
-100.64
-114.23
-124.47
-130.76
-132.73
-130.50
-124.75
-116.52
-106.90
-96.82
-86.86
-77.26
-68.03
-59.00
-49.99
-40.87
-31.66
-22.60
-14.12
-6.68
-0.59
4.16
7.94
11.21
14.30
17.19
19.58
21.12
21.71
21.61
21.27
21.04
20.92
20.49
19.18
16.58
12.80
8.38
4.20
1.06
-0.58
-0.70
0.34
2.01
3.77
5.27
6.30
6.78
6.69
6.07
4.99
3.63
2.28
1.31
1.07
1.71
3.14
5.04
6.98
8.57
9.58
9.99
9.87
9.28
8.26
6.78
4.75
2.14
-0.98
-4.39
-7.80
-10.80
-13.10
-14.52
-15.12
-15.09
-14.63
-13.86
-12.66
-10.84
-8.26
-5.00
-1.54
1.45
3.37
3.91
3.32
2.20
1.28
1.11
1.85
3.35
5.24
7.20
8.95
10.36
11.35
11.83
11.77
11.17
10.13
8.83
7.40
5.92
4.32
2.46
0.25
-2.19
-4.48
-6.08
-6.47
-5.36
-2.91
0.40
3.87
6.86
8.94
9.84
9.47
7.75
4.74
0.66
-3.98
-8.38
-11.67
-13.26
-13.00
-11.29
-8.87
-6.48
-4.59
-3.31
-2.44
-1.76
-1.26
-1.10
-1.60
-2.96
-5.13
-7.85
-10.69
-13.31
-15.57
-17.50
-19.21
-20.69
-21.74
-21.96
-20.98
-18.60
-14.95
-10.59
-6.28
-2.86
-0.92
-0.59
-1.46
-2.65
-3.09
-1.98
0.81
4.56
7.97
9.70
9.02
6.24
2.60
-0.31
-1.34
-0.34
1.71
3.11
2.18
-2.14
-9.84
-19.84
-30.01
-37.49
-39.23
-32.83
-17.53
4.98
30.52
53.22
67.47
69.91
60.91
44.52
26.81
13.57
8.14
10.63
18.63
28.71
38.16
45.68
51.29
55.44
58.26
59.26
57.69
53.16
46.09
37.73
29.64
23.14
18.80
16.40
15.20
14.45
13.89
13.75
14.62
16.81
19.98
23.02
24.39
22.81
17.88
10.31
1.68
-6.10
-11.44
-13.55
-12.46
-8.87
-3.85
1.47
6.15
9.46
10.98
10.56
8.33
4.73
0.43
-3.75
-7.03
-8.91
-9.34
-8.70
-7.62
-6.70
-6.27
-6.34
-6.72
-7.18
-7.56
-7.80
-7.84
-7.61
-7.12
-6.52
-6.18
-6.60
-8.14
-10.81
-14.11
-17.13
-18.90
-18.75
-16.59
-12.99
-8.97
-5.60
-3.59
-3.09
-3.62
-4.44
-4.94
-4.95
-4.81
-5.17
-6.57
-9.04
-12.04
-14.62
-15.91
-15.59
-14.02
-12.13
-10.96
-11.27
-13.28
-16.98
-22.28
-29.29
-38.14
-48.73
-60.30
-71.72
-82.22
-92.14
-102.96
-116.24
-132.28
-149.11
-162.78
-168.84
-164.25
-148.32
-122.32
-88.32
-48.05
-2.95
44.86
91.73
132.65
162.79
179.57
183.80
179.31
171.03
162.85
156.52
151.95
148.14
144.46
140.98
138.15
135.91
133.32
128.69
120.39
107.74
91.47
73.70
57.01
43.42
33.58
26.73
21.22
15.56
9.23
2.89
-2.08
-4.46
-4.06
-1.97
-0.13
-0.50
-4.08
-10.51
-18.22
-25.14
-29.73
-31.65
-32.08
-33.26
-37.71
-47.36
-62.86
-83.30
-106.10
-127.36
-142.47
-147.20
-139.05
-118.50
-89.47
-58.59
-33.25
-19.21
-18.66
-29.64
-47.06
-64.82
-77.81
-83.17
-80.41
-70.60
-55.48
-36.91
-16.73
3.00
20.07
32.33
38.38
38.26
33.57
27.22
22.49
21.93
26.42
34.95
45.08
53.90
59.28
60.46
58.17
53.94
49.28
45.07
41.44
38.10
34.83
31.72
28.98
26.66
24.37
21.32
16.80
10.62
3.38
-3.66
-9.04
-11.58
-10.76
-6.81
-0.59
6.72
13.81
19.56
23.19
24.46
23.67
21.65
19.32
17.43
16.28
15.63
14.95
13.67
11.57
8.76
5.69
2.89
0.82
-0.30
-0.49
-0.00
0.72
1.17
0.87
-0.44
-2.71
-5.51
-8.08
-9.61
-9.45
-7.31
-3.41
1.60
6.77
11.12
13.84
14.50
13.14
10.21
6.41
2.51
-0.85
-3.24
-4.46
-4.46
-3.26
-1.00
2.10
5.66
9.21
12.21
14.30
15.31
15.36
14.75
13.80
12.69
11.46
10.07
8.54
7.00
5.73
4.93
4.71
4.95
5.44
6.01
6.57
7.11
7.62
7.95
7.88
7.22
5.94
4.13
1.99
-0.36
-2.91
-5.71
-8.73
-11.77
-14.42
-16.34
-17.27
-17.21
-16.29
-14.69
-12.54
-9.93
-7.05
-4.15
-1.65
0.09
0.83
0.54
-0.66
-2.54
-4.87
-7.45
-10.10
-12.64
-14.84
-16.45
-17.23
-17.07
-15.99
-14.23
-12.14
-10.10
-8.41
-7.19
-6.45
-6.19
-6.43
-7.28
-8.80
-10.96
-13.52
-16.16
-18.52
-20.35
-21.68
-22.64
-23.55
-24.61
-25.87
-27.16
-28.15
-28.56
-28.12
-26.70
-24.25
-20.77
-16.38
-11.36
-6.12
-1.23
2.91
6.05
8.30
10.04
11.64
13.37
15.20
16.79
17.72
17.66
16.56
14.60
12.11
9.35
6.34
2.93
-1.09
-5.72
-10.59
-15.03
-18.21
-19.59
-19.01
-16.83
-13.66
-10.16
-6.83
-3.87
-1.40
0.56
1.91
2.48
2.17
1.03
-0.78
-3.00
-5.51
-8.33
-11.56
-15.17
-18.88
-22.01
-23.72
-23.36
-20.76
-16.39
-11.17
-6.16
-2.15
0.59
2.26
3.26
3.98
4.53
4.78
4.59
3.98
3.24
2.79
2.95
3.75
4.80
5.58
5.57
4.64
3.01
1.23
-0.16
-0.88
-1.04
-1.12
-1.73
-3.33
-6.04
-9.54
-13.22
-16.31
-18.14
-18.32
-16.79
-13.82
-9.88
-5.55
-1.41
2.08
4.57
5.90
6.04
5.12
3.41
1.31
-0.70
-2.18
-2.88
-2.89
-2.67
-2.83
-3.88
-5.90
-8.51
-11.01
-12.79
-13.57
-13.55
-13.20
-12.91
-12.82
-12.78
-12.53
-12.00
-11.40
-11.03
-11.10
-11.46
-11.64
-11.07
-9.41
-6.76
-3.55
-0.32
2.63
5.34
8.08
11.04
14.10
16.78
18.45
18.69
17.57
15.66
13.83
12.77
12.72
13.32
13.86
13.60
12.20
9.88
7.27
5.12
3.96
3.83
4.21
4.33
3.37
0.91
-2.92
-7.49
-11.80
-14.84
-15.89
-14.69
-11.44
-6.65
-0.98
4.94
10.58
15.43
19.05
21.05
21.28
19.88
17.30
14.27
11.49
9.52
8.53
8.37
8.62
8.85
8.73
8.16
7.21
6.06
4.83
3.57
2.25
0.75
-0.97
-2.96
-5.27
-7.97
-11.08
-14.55
-18.06
-21.05
-22.79
-22.66
-20.36
-16.16
-10.80
-5.34
-0.74
2.40
4.04
4.63
4.77
5.06
5.79
6.93
8.26
9.42
10.08
10.03
9.30
8.30
7.78
8.67
11.73
17.17
24.34
31.83
37.85
40.78
39.73
34.71
26.55
16.49
5.79
-4.57
-14.00
-22.21
-29.06
-34.46
-38.23
-40.27
-40.61
-39.49
-37.42
-34.95
-32.60
-30.64
-29.08
-27.67
-26.13
-24.36
-22.47
-20.76
-19.61
-19.18
-19.40
-19.88
-20.16
-19.93
-19.13
-18.10
-17.28
-17.02
-17.30
-17.72
-17.70
-16.87
-15.29
-13.58
-12.52
-12.74
-14.30
-16.66
-18.85
-19.88
-19.13
-16.50
-12.34
-7.24
-1.80
3.50
8.31
12.35
15.39
17.24
17.77
17.03
15.29
13.04
10.92
9.48
9.05
9.60
10.73
11.86
12.47
12.27
11.26
9.72
8.04
6.55
5.42
4.59
3.89
3.06
1.86
0.13
-2.14
-4.79
-7.55
-10.04
-11.83
-12.56
-12.01
-10.15
-7.26
-3.75
-0.17
3.00
5.43
6.98
7.72
7.84
7.60
7.21
6.86
6.69
6.80
7.20
7.76
8.25
8.38
7.95
6.92
5.45
3.84
2.45
1.48
0.99
0.80
0.63
0.11
-1.05
-2.95
-5.48
-8.24
-10.66
-12.19
-12.47
-11.42
-9.26
-6.36
-3.06
0.37
3.79
7.06
9.98
12.31
13.76
14.20
13.64
12.39
10.84
9.47
8.58
8.26
8.36
8.59
8.65
8.29
7.44
6.16
4.62
3.01
1.45
-0.05
-1.58
-3.29
-5.33
-7.68
-10.13
-12.36
-13.91
-14.40
-13.59
-11.42
-8.01
-3.67
1.17
5.98
10.22
13.48
15.50
16.27
16.00
15.00
13.63
12.16
10.82
9.76
9.06
8.77
8.84
9.14
9.49
9.70
9.63
9.25
8.61
7.82
6.98
6.05
4.91
3.27
0.85
-2.47
-6.51
-10.73
-14.39
-16.76
-17.33
-16.06
-13.26
-9.55
-5.49
-1.52
2.14
5.41
8.21
10.45
12.01
12.83
12.96
12.56
11.84
10.96
10.02
9.09
8.22
7.49
6.92
6.48
6.04
5.41
4.45
3.13
1.58
-0.04
-1.64
-3.23
-4.98
-7.09
-9.65
-12.57
-15.53
-18.09
-19.72
-20.01
-18.72
-15.92
-11.95
-7.37
-2.79
1.30
4.63
7.11
8.79
9.71
9.86
9.22
7.90
6.18
4.52
3.37
3.00
3.43
4.40
5.51
6.41
6.90
6.94
6.67
6.21
5.70
5.18
4.60
3.88
2.94
1.68
0.10
-1.74
-3.63
-5.26
-6.21
-6.15
-4.84
-2.34
1.08
4.93
8.66
11.83
14.16
15.59
16.24
16.31
15.98
15.42
14.72
13.94
13.14
12.40
11.79
11.35
11.07
10.87
10.60
10.16
9.49
8.60
7.49
6.20
4.70
2.97
0.97
-1.30
-3.81
-6.51
-9.33
-12.10
-14.62
-16.54
-17.51
-17.29
-15.84
-13.36
-10.21
-6.78
-3.40
-0.31
2.31
4.32
5.57
6.00
5.64
4.67
3.41
2.19
1.32
0.94
1.05
1.50
2.03
2.47
2.67
2.63
2.46
2.25
2.06
1.72
1.00
-0.36
-2.45
-5.09
-7.87
-10.28
-11.88
-12.36
-11.63
-9.74
-6.82
-3.08
1.15
5.42
9.13
11.79
13.04
12.87
11.59
9.66
7.63
5.85
4.51
3.59
3.00
2.60
2.32
2.16
2.17
2.38
2.79
3.24
3.53
3.43
2.74
1.36
-0.75
-3.52
-6.77
-10.17
-13.24
-15.42
-16.22
-15.36
-12.91
-9.22
-4.92
-0.66
3.08
5.95
7.91
8.99
9.28
8.81
7.70
6.12
4.43
3.04
2.33
2.43
3.17
4.12
4.81
4.90
4.36
3.46
2.54
1.91
1.49
0.95
-0.19
-2.29
-5.35
-8.94
-12.30
-14.66
-15.50
-14.66
-12.42
-9.23
-5.55
-1.75
1.94
5.31
8.16
10.25
11.41
11.60
10.94
9.69
8.11
6.49
5.07
3.99
3.34
3.09
3.09
3.15
3.06
2.75
2.20
1.48
0.62
-0.45
-1.82
-3.61
-5.76
-8.12
-10.39
-12.22
-13.29
-13.35
-12.30
-10.19
-7.21
-3.76
-0.26
2.83
5.21
6.77
7.61
7.93
7.94
7.82
7.65
7.43
7.15
6.77
6.37
6.01
5.75
5.63
5.54
5.36
4.98
4.38
3.68
3.05
2.60
2.27
1.80
0.82
-0.91
-3.31
-5.99
-8.27
-9.52
-9.33
-7.69
-4.96
-1.69
1.60
4.51
6.83
8.49
9.44
9.71
9.35
8.54
7.51
6.54
5.84
5.52
5.55
5.79
6.06
6.17
6.02
5.62
5.06
4.50
4.08
3.76
3.35
2.46
0.82
-1.65
-4.67
-7.62
-9.86
-10.83
-10.35
-8.58
-5.87
-2.69
0.63
3.83
6.73
9.18
10.95
11.87
11.86
11.00
9.60
8.10
6.93
6.37
6.40
6.80
7.19
7.28
6.91
6.14
5.09
3.88
2.55
1.02
-0.79
-2.89
-5.16
-7.33
-9.18
-10.48
-11.24
-11.54
-11.48
-11.14
-10.38
-8.98
-6.69
-3.42
0.62
4.94
8.86
11.78
13.39
13.74
13.25
12.38
11.52
10.80
10.15
9.43
8.54
7.49
6.27
4.84
3.06
0.74
-2.17
-5.61
-9.34
-12.98
-16.24
-18.92
-21.01
-22.60
-23.74
-24.38
-24.25
-23.09
-20.72
-17.23
-13.05
-8.76
-4.93
-1.82
0.60
2.55
4.22
5.55
6.29
6.17
5.18
3.67
2.15
1.11
0.70
0.70
0.73
0.38
-0.50
-1.75
-3.11
-4.27
-5.13
-5.84
-6.67
-7.91
-9.66
-11.80
-13.89
-15.38
-15.65
-14.36
-11.56
-7.60
-3.09
1.44
5.64
9.36
12.52
14.95
16.43
16.76
15.96
14.44
12.80
11.69
11.55
12.46
14.20
16.39
18.82
21.44
24.43
27.93
31.87
35.88
39.26
41.23
41.10
38.47
33.37
26.15
17.57
8.56
-0.04
-7.57
-13.77
-18.65
-22.26
-24.47
-24.93
-23.37
-19.92
-15.40
-11.16
-8.57
-8.35
-10.17
-12.87
-14.90
-15.23
-13.83
-11.74
-10.78
-12.88
-19.72
-32.37
-51.13
-75.37
-103.29
-131.97
-157.78
-177.18
-187.87
-189.40
-183.23
-172.05
-158.47
-144.00
-128.33
-109.75
-86.12
-56.30
-21.14
16.37
51.91
81.35
102.09
113.72
117.76
116.50
111.93
105.07
96.22
85.71
74.50
64.27
56.82
53.16
53.00
54.81
56.61
56.89
55.14
51.98
48.61
46.06
44.66
43.84
42.54
39.81
35.33
29.68
24.00
19.50
16.83
15.93
16.08
16.43
16.35
15.67
14.60
13.44
12.41
11.46
10.50
9.46
8.44
7.62
7.16
7.03
7.03
6.84
6.25
5.23
3.92
2.63
1.65
1.13
1.05
1.19
1.28
0.99
0.17
-1.21
-2.99
-4.89
-6.49
-7.36
-7.12
-5.53
-2.60
1.42
6.06
10.79
15.07
18.52
20.85
21.98
21.98
21.13
19.87
18.65
17.84
17.50
17.42
17.19
16.45
15.05
13.15
11.16
9.49
8.35
7.71
7.31
6.84
6.14
5.14
3.87
2.37
0.63
-1.32
-3.31
-5.05
-6.10
-6.07
-4.79
-2.37
0.74
3.91
6.53
8.10
8.40
7.47
5.58
3.12
0.50
-1.92
-3.85
-5.11
-5.60
-5.33
-4.40
-3.10
-1.75
-0.72
-0.24
-0.44
-1.22
-2.50
-4.17
-6.20
-8.61
-11.34
-14.16
-16.71
-18.57
-19.37
-18.93
-17.26
-14.54
-11.09
-7.25
-3.45
-0.10
2.41
3.81
4.00
3.14
1.55
-0.31
-2.03
-3.31
-4.05
-4.30
-4.19
-3.92
-3.61
-3.30
-2.98
-2.62
-2.24
-2.01
-2.15
-2.93
-4.51
-6.84
-9.61
-12.34
-14.42
-15.39
-14.95
-13.12
-10.18
-6.50
-2.44
1.70
5.67
9.19
12.00
13.84
14.57
14.23
13.04
11.35
9.52
7.87
6.60
5.71
5.08
4.46
3.70
2.81
1.98
1.53
1.64
2.27
3.03
3.38
2.84
1.19
-1.40
-4.45
-7.34
-9.42
-10.22
-9.52
-7.36
-4.04
-0.05
4.03
7.73
10.77
13.06
14.70
15.79
16.43
16.57
16.11
14.98
13.22
11.17
9.36
8.38
8.64
10.10
12.15
13.85
14.31
13.20
10.94
8.55
7.13
7.27
8.75
10.50
10.94
8.30
1.11
-11.45
-29.14
-50.26
-71.91
-90.45
-102.74
-107.15
-104.15
-96.17
-86.55
-78.34
-73.29
-71.56
-72.23
-73.79
-74.86
-74.39
-71.68
-66.34
-58.40
-48.28
-36.89
-25.45
-15.18
-7.00
-1.35
1.84
2.92
2.38
0.81
-1.27
-3.19
-4.30
-4.07
-2.15
1.32
5.90
10.92
15.71
19.75
22.74
24.59
25.26
24.82
23.38
21.15
18.52
15.91
13.78
12.46
12.00
12.13
12.40
12.33
11.66
10.45
9.03
7.83
7.10
6.81
6.57
5.92
4.39
1.88
-1.27
-4.39
-6.69
-7.60
-6.96
-5.06
-2.37
0.62
3.67
6.69
9.61
12.25
14.28
15.34
15.32
14.46
13.30
12.40
12.08
12.29
12.73
13.05
13.12
13.05
13.08
13.35
13.76
13.99
13.63
12.46
10.44
7.80
4.89
2.04
-0.48
-2.51
-3.92
-4.55
-4.25
-2.94
-0.65
2.38
5.73
8.89
11.42
12.94
13.39
12.88
11.74
10.43
9.30
8.52
8.08
7.82
7.61
7.39
7.29
7.46
8.02
8.90
9.76
10.23
9.96
8.85
7.01
4.73
2.29
-0.16
-2.58
-4.92
-6.93
-8.15
-7.98
-6.02
-2.27
2.76
8.19
13.04
16.66
18.76
19.50
19.25
18.39
17.16
15.68
14.04
12.40
10.94
9.84
9.15
8.76
8.48
8.07
7.47
6.68
5.80
4.89
3.95
2.88
1.45
-0.52
-3.15
-6.35
-9.77
-12.86
-15.00
-15.75
-14.99
-12.95
-10.22
-7.34
-4.72
-2.49
-0.57
1.03
2.17
2.51
1.75
-0.11
-2.69
-5.33
-7.40
-8.49
-8.58
-8.08
-7.45
-7.11
-7.15
-7.40
-7.61
-7.52
-7.16
-6.81
-6.87
-7.67
-9.25
-11.34
-13.38
-14.81
-15.26
-14.57
-12.92
-10.51
-7.57
-4.29
-0.80
2.62
5.63
7.83
8.96
9.03
8.31
7.22
6.14
5.26
4.53
3.71
2.62
1.18
-0.45
-1.93
-2.97
-3.36
-3.23
-2.93
-2.92
-3.55
-4.90
-6.74
-8.65
-10.23
-11.19
-11.39
-10.82
-9.38
-6.97
-3.54
0.76
5.48
9.99
13.68
16.19
17.53
18.05
18.24
18.57
19.38
20.82
22.80
25.15
27.54
29.74
31.57
32.95
33.87
34.22
33.78
32.26
29.52
25.67
21.14
16.47
12.08
8.06
4.25
0.36
-3.61
-7.29
-9.97
-10.92
-9.80
-6.89
-3.04
0.70
3.48
4.93
5.20
4.70
3.89
3.00
1.99
0.80
-0.66
-2.22
-3.64
-4.69
-5.30
-5.65
-6.14
-7.20
-9.07
-11.69
-14.72
-17.66
-20.13
-22.08
-23.77
-25.73
-28.33
-31.54
-34.86
-37.47
-38.70
-38.30
-36.57
-34.08
-31.37
-28.62
-25.61
-22.11
-18.09
-13.91
-10.27
-7.77
-6.72
-6.92
-7.84
-8.86
-9.59
-9.91
-9.97
-9.99
-10.07
-10.14
-10.02
-9.62
-9.02
-8.50
-8.37
-8.98
-10.35
-12.29
-14.39
-16.13
-17.15
-17.24
-16.39
-14.70
-12.24
-9.08
-5.29
-1.06
3.26
7.17
10.08
11.56
11.47
10.11
8.09
6.16
4.85
4.38
4.58
5.08
5.54
5.81
5.96
6.14
6.43
6.79
7.09
7.08
6.66
5.73
4.32
2.48
0.29
-2.11
-4.54
-6.65
-7.97
-8.01
-6.45
-3.32
0.96
5.67
10.00
13.35
15.45
16.38
16.50
16.09
15.40
14.46
13.26
11.89
10.52
9.46
8.90
8.92
9.35
9.88
10.19
9.98
9.19
7.91
6.30
4.57
2.74
0.67
-1.88
-5.06
-8.71
-12.38
-15.39
-17.12
-17.23
-15.83
-13.41
-10.54
-7.68
-4.98
-2.33
0.36
3.02
5.26
6.59
6.72
5.77
4.34
3.23
3.13
4.33
6.63
9.58
12.63
15.51
18.22
20.87
23.62
26.38
28.87
30.72
31.61
31.44
30.27
28.29
25.68
22.72
19.79
17.33
16.06
16.55
19.19
23.89
29.91
36.04
40.69
42.48
40.50
34.73
26.06
16.00
6.27
-1.83
-7.81
-12.05
-15.66
-19.86
-25.58
-33.17
-42.38
-52.61
-63.16
-73.34
-82.45
-89.87
-95.13
-98.23
-99.87
-101.41
-104.46
-110.25
-118.80
-128.80
-137.77
-142.97
-142.30
-134.86
-121.02
-101.92
-78.95
-53.49
-26.92
-0.85
22.84
42.25
55.96
63.73
66.53
66.50
66.12
67.38
71.13
76.91
83.40
89.10
93.14
95.58
97.15
98.74
100.65
102.47
103.23
102.03
98.69
93.92
89.09
85.54
83.97
84.12
85.00
85.44
84.63
82.51
79.58
76.54
73.81
71.27
68.33
64.33
58.90
52.31
45.28
38.75
33.44
29.49
26.50
23.73
20.52
16.61
12.25
8.06
4.62
2.20
0.56
-0.97
-3.06
-6.11
-9.99
-14.00
-17.22
-18.84
-18.44
-16.15
-12.51
-8.18
-3.77
0.35
3.99
7.07
9.56
11.43
12.68
13.46
13.98
14.44
14.91
15.28
15.28
14.78
13.99
13.55
14.35
17.04
21.60
27.20
32.39
35.60
35.83
32.87
27.39
20.54
13.47
6.92
1.21
-3.57
-7.35
-9.77
-10.36
-8.78
-5.18
-0.36
4.41
7.81
8.89
7.44
3.96
-0.61
-5.30
-9.41
-12.77
-15.63
-18.58
-22.38
-27.81
-35.53
-45.96
-59.19
-74.92
-92.65
-111.64
-130.99
-149.64
-166.37
-179.88
-189.16
-193.73
-193.91
-190.86
-186.07
-180.87
-175.65
-169.50
-160.44
-146.27
-125.29
-97.09
-62.54
-23.67
16.74
55.54
89.36
115.12
130.59
135.08
129.85
117.84
102.67
87.51
74.20
63.12
53.71
45.32
37.69
30.94
25.27
20.58
16.41
12.33
8.25
4.67
2.45
2.36
4.59
8.67
13.58
18.21
21.76
23.90
24.79
24.81
24.28
23.40
22.16
20.54
18.63
16.65
14.96
13.87
13.54
13.90
14.68
15.49
15.96
15.86
15.15
13.90
12.34
10.67
9.02
7.47
6.02
4.74
3.81
3.52
4.23
6.12
9.17
12.92
16.71
19.83
21.75
22.33
21.74
20.35
18.47
16.34
14.03
11.62
9.23
7.04
5.28
4.13
3.66
3.81
4.29
4.72
4.70
4.00
2.61
0.71
-1.41
-3.57
-5.62
-7.44
-8.76
-9.22
-8.42
-6.17
-2.62
1.66
6.01
9.81
12.76
14.90
16.39
17.45
18.11
18.29
17.92
17.07
16.02
15.17
14.83
15.02
15.36
15.32
14.31
12.13
8.94
5.18
1.45
-2.00
-5.17
-8.50
-12.49
-17.46
-23.33
-29.51
-35.15
-39.34
-41.42
-41.24
-39.04
-35.48
-31.25
-26.94
-22.93
-19.32
-16.16
-13.43
-11.15
-9.32
-7.85
-6.57
-5.22
-3.67
-1.96
-0.30
0.92
1.52
1.48
1.07
0.68
0.50
0.54
0.49
-0.02
-1.34
-3.66
-7.02
-11.32
-16.37
-21.90
-27.61
-33.09
-37.99
-41.92
-44.58
-45.78
-45.51
-44.05
-41.83
-39.42
-37.17
-35.12
-32.93
-30.04
-26.08
-21.00
-15.28
-9.77
-5.26
-2.29
-0.85
-0.50
-0.63
-0.66
-0.37
0.12
0.43
0.12
-1.14
-3.51
-6.81
-10.69
-14.63
-18.03
-20.38
-21.26
-20.44
-17.98
-14.21
-9.69
-5.06
-0.76
3.09
6.71
10.49
14.78
19.50
24.18
28.07
30.30
30.39
28.29
24.49
19.81
15.13
11.13
8.16
6.22
5.03
4.12
2.97
1.01
-2.21
-7.06
-13.70
-21.92
-31.20
-40.60
-48.93
-55.09
-58.33
-58.56
-56.41
-52.99
-49.36
-46.10
-43.05
-39.45
-34.46
-27.72
-19.58
-11.07
-3.33
2.99
8.07
12.73
17.95
24.26
31.38
38.36
44.01
47.45
48.42
47.27
44.61
40.99
36.61
31.44
25.34
18.46
11.31
4.65
-0.69
-4.18
-5.73
-5.70
-4.74
-3.46
-2.30
-1.43
-0.79
-0.23
0.49
1.57
3.26
5.62
8.39
10.95
12.31
11.48
7.93
1.92
-5.34
-12.18
-16.98
-18.88
-18.09
-15.73
-13.45
-12.60
-13.83
-16.83
-20.61
-24.00
-26.20
-26.96
-26.60
-25.59
-24.25
-22.56
-20.28
-17.24
-13.50
-9.45
-5.58
-2.29
0.45
2.99
5.78
9.17
12.98
16.63
19.42
20.83
20.92
20.27
19.74
20.01
21.24
23.08
24.71
25.47
24.93
23.18
20.67
17.91
15.31
12.96
10.73
8.39
5.84
3.21
0.87
-0.72
-1.14
-0.23
1.94
4.95
8.42
11.97
15.41
18.73
21.85
24.64
26.81
28.00
28.05
26.99
25.18
23.06
21.13
19.68
18.65
17.85
16.93
15.70
14.23
12.76
11.58
10.77
10.11
9.13
7.35
4.60
1.01
-2.90
-6.55
-9.52
-11.57
-12.73
-13.04
-12.43
-10.78
-7.92
-3.89
1.01
6.21
11.01
14.85
17.45
18.86
19.38
19.31
18.89
18.05
16.77
15.01
13.05
11.34
10.29
10.07
10.34
10.45
9.68
7.63
4.43
0.50
-3.52
-7.29
-10.81
-14.29
-18.11
-22.31
-26.63
-30.47
-33.07
-33.97
-33.10
-30.86
-27.96
-25.06
-22.60
-20.62
-19.05
-17.84
-17.07
-17.03
-17.80
-19.23
-20.72
-21.58
-21.32
-19.95
-17.97
-16.11
-14.92
-14.54
-14.64
-14.72
-14.33
-13.33
-11.89
-10.36
-9.20
-8.61
-8.66
-9.18
-9.83
-10.26
-10.04
-8.90
-6.56
-2.97
1.72
7.18
12.86
18.22
22.75
26.04
27.92
28.38
27.68
26.31
24.83
23.69
23.08
22.85
22.70
22.40
21.91
21.41
21.11
21.06
21.03
20.67
19.60
17.74
15.20
12.24
9.16
6.09
3.11
0.32
-1.98
-3.42
-3.52
-2.03
0.96
4.99
9.39
13.42
16.60
18.68
19.69
19.82
19.28
18.17
16.61
14.70
12.65
10.77
9.36
8.60
8.47
8.74
9.07
9.21
9.02
8.59
8.11
7.69
7.30
6.72
5.56
3.56
0.69
-2.73
-6.07
-8.58
-9.65
-8.99
-6.68
-3.22
0.75
4.58
7.82
10.35
12.31
13.92
15.28
16.18
16.22
15.08
12.74
9.68
6.72
4.60
3.71
3.83
4.27
4.33
3.63
2.22
0.47
-1.30
-3.08
-5.08
-7.58
-10.60
-13.89
-16.98
-19.52
-21.38
-22.64
-23.50
-23.94
-23.70
-22.31
-19.33
-14.66
-8.71
-2.30
3.52
7.93
10.57
11.53
11.28
10.36
9.15
7.81
6.42
5.07
3.97
3.39
3.43
3.97
4.62
4.92
4.58
3.63
2.39
1.32
0.63
0.26
-0.22
-1.34
-3.61
-7.13
-11.60
-16.25
-20.07
-22.12
-21.80
-19.05
-14.36
-8.51
-2.31
3.64
8.97
13.53
17.19
19.75
21.01
20.86
19.44
17.20
14.72
12.57
11.07
10.19
9.77
9.53
9.37
9.33
9.50
9.84
10.17
10.16
9.42
7.83
5.45
2.61
-0.22
-2.65
-4.43
-5.45
-5.68
-4.96
-3.07
0.26
5.08
11.11
17.70
23.89
28.74
31.48
31.71
29.42
24.84
18.38
10.47
1.52
-8.03
-17.76
-27.23
-36.10
-44.16
-51.40
-58.00
-64.15
-70.01
-75.49
-80.26
-83.88
-85.84
-85.89
-84.02
-80.45
-75.55
-69.57
-62.54
-54.28
-44.58
-33.38
-20.88
-7.66
5.54
17.90
28.71
37.49
43.89
47.70
48.67
46.64
41.64
34.08
24.80
14.89
5.46
-2.71
-9.41
-14.88
-19.74
-24.54
-29.63
-35.09
-40.75
-46.41
-51.87
-56.93
-61.27
-64.35
-65.46
-63.85
-59.05
-51.03
-40.30
-27.85
-14.84
-2.36
8.87
18.57
26.69
33.36
38.57
42.28
44.44
45.14
44.77
43.87
43.03
42.56
42.49
42.59
42.49
41.93
40.82
39.28
37.50
35.56
33.42
30.81
27.44
23.11
17.82
11.92
5.96
0.64
-3.40
-5.77
-6.35
-5.25
-2.64
1.19
5.92
11.14
16.24
20.62
23.71
25.25
25.34
24.36
22.83
21.22
19.80
18.64
17.65
16.75
15.85
14.95
14.10
13.30
12.50
11.57
10.40
8.90
7.05
4.93
2.60
0.16
-2.28
-4.55
-6.35
-7.33
-7.10
-5.42
-2.32
1.83
6.40
10.70
14.13
16.38
17.49
17.67
17.34
16.86
16.56
16.57
16.86
17.31
17.69
17.83
17.61
17.08
16.33
15.49
14.65
13.80
12.87
11.71
10.22
8.35
6.20
3.91
1.68
-0.30
-1.83
-2.68
-2.59
-1.39
0.93
4.14
7.67
10.80
12.83
13.33
12.19
9.71
6.40
2.84
-0.51
-3.42
-5.91
-8.02
-9.85
-11.39
-12.55
-13.27
-13.53
-13.44
-13.11
-12.68
-12.21
-11.73
-11.37
-11.37
-12.05
-13.64
-16.08
-18.94
-21.49
-22.96
-22.84
-21.09
-18.07
-14.39
-10.62
-7.14
-4.15
-1.77
-0.12
0.70
0.64
-0.16
-1.42
-2.70
-3.70
-4.20
-4.26
-4.05
-3.76
-3.52
-3.31
-3.04
-2.65
-2.18
-1.85
-1.99
-2.93
-4.87
-7.75
-11.25
-14.92
-18.23
-20.69
-21.84
-21.37
-19.09
-15.06
-9.62
-3.32
3.14
9.11
14.08
17.71
19.91
20.82
20.77
20.25
19.69
19.41
19.48
19.77
20.08
20.20
20.00
19.50
18.74
17.83
16.85
15.85
14.85
13.69
12.10
9.80
6.56
2.41
-2.33
-7.05
-10.96
-13.44
-14.14
-13.27
-11.55
-10.06
-9.83
-11.48
-14.94
-19.53
-24.21
-28.02
-30.41
-31.41
-31.40
-30.96
-30.40
-29.81
-28.93
-27.46
-25.26
-22.43
-19.52
-17.18
-16.03
-16.34
-17.86
-20.00
-22.01
-23.37
-23.92
-23.74
-23.00
-21.69
-19.59
-16.41
-11.86
-5.80
1.92
11.59
23.66
38.40
55.22
72.37
86.92
95.66
96.26
88.28
73.42
54.92
36.30
20.20
7.62
-1.93
-9.84
-17.44
-25.51
-33.93
-41.91
-48.48
-52.86
-54.88
-55.03
-54.27
-53.59
-53.53
-53.93
-54.14
-53.30
-50.93
-47.03
-42.16
-37.03
-32.11
-27.52
-22.96
-18.17
-13.18
-8.37
-4.33
-1.47
0.20
1.16
2.09
3.57
5.84
8.66
11.55
13.93
15.40
15.79
15.20
13.89
12.19
10.47
8.97
7.77
6.70
5.37
3.28
0.09
-4.23
-9.18
-13.86
-17.09
-17.73
-14.98
-8.58
0.88
11.95
22.39
29.58
31.21
26.07
14.49
-1.67
-19.59
-36.31
-49.54
-58.00
-61.29
-59.68
-53.83
-44.82
-34.27
-24.12
-16.28
-11.96
-11.31
-13.36
-16.43
-18.69
-18.86
-16.68
-13.14
-10.28
-10.45
-15.30
-24.90
-37.44
-49.82
-58.97
-62.97
-61.59
-55.87
-47.21
-36.81
-25.56
-14.48
-4.94
1.62
4.57
4.67
3.95
4.78
8.66
15.55
24.05
32.30
38.77
42.72
43.91
42.30
37.90
31.00
22.46
13.86
7.13
3.94
5.15
10.48
18.61
27.52
35.15
39.93
41.32
40.06
37.87
36.94
39.01
44.73
53.33
62.85
70.66
74.08
71.01
60.60
43.96
24.58
7.97
0.23
5.65
24.51
52.08
79.87
98.65
101.97
88.36
61.36
27.47
-6.72
-36.65
-60.27
-77.30
-88.02
-92.55
-91.06
-84.27
-73.89
-62.49
-52.56
-45.60
-41.55
-38.87
-35.36
-29.29
-20.23
-9.28
1.45
9.74
14.25
15.06
13.58
11.96
12.18
15.33
21.26
28.80
36.24
41.96
44.96
45.11
43.02
39.74
36.38
33.66
31.75
30.31
28.66
26.19
22.61
18.15
13.48
9.39
6.52
5.05
4.73
5.16
5.99
7.14
8.67
10.58
12.46
13.64
13.28
10.87
6.60
1.36
-3.48
-6.60
-7.21
-5.37
-1.89
2.01
5.09
6.60
6.39
4.89
2.84
0.96
-0.33
-0.98
-1.19
-1.35
-1.85
-3.00
-4.93
-7.42
-9.77
-10.79
-9.08
-3.60
5.86
18.32
31.74
43.65
51.87
55.23
53.81
48.72
41.68
34.41
28.23
23.85
21.42
20.57
20.67
20.99
20.88
19.92
17.90
14.95
11.37
7.61
4.16
1.46
-0.30
-1.14
-1.33
-1.28
-1.40
-2.01
-3.26
-5.12
-7.41
-9.93
-12.44
-14.74
-16.73
-18.30
-19.37
-19.81
-19.49
-18.31
-16.27
-13.59
-10.59
-7.69
-5.26
-3.57
-2.67
-2.38
-2.45
-2.53
-2.41
-1.97
-1.26
-0.45
0.27
0.78
1.03
1.05
0.88
0.46
-0.33
-1.69
-3.73
-6.45
-9.72
-13.32
-16.97
-20.35
-23.10
-24.78
-24.96
-23.33
-19.79
-14.64
-8.44
-1.97
4.07
9.16
13.05
15.67
17.03
17.14
16.05
13.95
11.24
8.43
6.08
4.51
3.76
3.56
3.44
3.01
2.09
0.75
-0.74
-2.11
-3.25
-4.30
-5.64
-7.68
-10.69
-14.55
-18.79
-22.59
-25.09
-25.61
-23.83
-19.86
-14.13
-7.30
-0.09
6.83
12.87
17.58
20.73
22.25
22.28
21.08
19.03
16.53
13.98
11.74
9.99
8.74
7.77
6.75
5.42
3.68
1.70
-0.21
-1.72
-2.71
-3.32
-3.92
-4.91
-6.57
-8.94
-11.75
-14.55
-16.82
-18.08
-18.06
-16.66
-14.02
-10.41
-6.25
-1.97
2.00
5.37
7.97
9.71
10.60
10.64
9.85
8.26
6.13
3.81
1.74
0.29
-0.44
-0.56
-0.39
-0.21
-0.18
-0.30
-0.53
-0.90
-1.59
-2.84
-4.86
-7.66
-11.07
-14.75
-18.32
-21.40
-23.63
-24.72
-24.44
-22.66
-19.50
-15.22
-10.27
-5.15
-0.34
3.77
6.90
8.84
9.50
8.91
7.35
5.26
3.23
1.75
1.10
1.26
1.94
2.78
3.49
3.96
4.21
4.34
4.29
3.98
3.23
1.97
0.28
-1.74
-3.90
-6.07
-8.10
-9.73
-10.55
-10.08
-7.91
-3.88
1.72
8.30
15.06
21.24
26.24
29.77
31.77
32.41
31.99
30.92
29.72
28.97
29.13
30.34
32.36
34.64
36.47
37.36
37.09
36.01
34.62
33.31
32.12
30.73
28.82
26.18
22.91
19.29
16.09
13.92
12.95
12.81
12.75
12.12
10.57
8.08
4.84
1.94
0.58
1.43
4.23
7.92
11.24
13.13
12.99
10.61
7.28
4.33
2.18
0.05
-3.42
-8.83
-15.57
-22.02
-26.14
-24.31
-12.97
10.17
44.84
87.93
134.06
176.65
209.59
219.65
199.74
153.12
93.52
37.27
-5.53
-33.56
-50.90
-62.39
-71.11
-76.80
-78.53
-76.41
-72.22
-68.00
-64.34
-60.80
-56.14
-49.62
-40.66
-29.79
-18.61
-9.42
-4.19
-3.50
-6.50
-11.45
-16.60
-20.09
-21.04
-19.19
-15.92
-13.29
-12.83
-14.79
-18.11
-21.15
-22.11
-20.07
-15.27
-9.13
-3.25
1.43
4.95
8.14
11.93
16.92
22.91
28.87
33.11
33.74
29.34
19.60
5.83
-8.77
-19.45
-21.08
-9.91
14.55
48.72
85.53
116.49
134.52
136.07
121.95
96.33
64.73
32.00
1.33
-25.73
-48.50
-66.46
-79.05
-86.01
-87.89
-86.17
-82.88
-79.84
-77.98
-77.13
-76.31
-74.39
-70.69
-65.41
-59.50
-54.19
-50.42
-48.42
-47.65
-47.09
-45.72
-42.97
-38.91
-34.18
-29.63
-26.04
-23.82
-22.97
-23.13
-23.82
-24.64
-25.36
-25.97
-26.58
-27.21
-27.78
-28.00
-27.54
-26.11
-23.62
-20.24
-16.33
-12.35
-8.74
-5.84
-3.89
-2.94
-2.97
-3.79
-5.09
-6.48
-7.60
-8.18
-8.16
-7.72
-7.20
-6.97
-7.28
-8.21
-9.63
-11.34
-13.14
-14.90
-16.59
-18.31
-20.18
-22.34
-24.87
-27.73
-30.64
-33.14
-34.63
-34.64
-32.95
-29.75
-25.55
-20.98
-16.63
-12.89
-9.96
-7.91
-6.77
-6.49
-7.00
-8.10
-9.58
-11.21
-12.85
-14.39
-15.73
-16.78
-17.45
-17.70
-17.53
-17.02
-16.23
-15.22
-14.06
-12.84
-11.80
-11.26
-11.56
-12.89
-15.19
-18.04
-20.85
-22.89
-23.57
-22.58
-19.95
-15.99
-11.25
-6.26
-1.47
2.82
6.40
9.05
10.63
11.07
10.47
9.17
7.63
6.32
5.52
5.25
5.30
5.39
5.27
4.86
4.21
3.44
2.65
1.84
0.97
-0.06
-1.33
-2.91
-4.87
-7.32
-10.30
-13.67
-17.08
-19.80
-20.95
-19.71
-15.66
-9.02
-0.70
7.82
14.88
18.96
19.09
15.07
7.58
-2.02
-12.01
-20.73
-26.98
-30.21
-30.45
-28.26
-24.44
-19.83
-15.19
-11.03
-7.53
-4.65
-2.20
-0.13
1.38
1.93
1.08
-1.31
-4.99
-9.39
-13.78
-17.56
-20.35
-21.93
-22.25
-21.32
-19.23
-16.22
-12.63
-8.82
-5.00
-1.17
2.85
7.23
12.02
17.02
21.84
26.04
29.25
31.34
32.35
32.43
31.72
30.31
28.20
25.43
22.16
18.69
15.43
12.77
10.98
10.10
9.95
10.18
10.32
9.89
8.53
6.01
2.42
-1.77
-5.76
-8.60
-9.39
-7.67
-3.53
2.39
9.10
15.60
21.16
25.40
28.28
29.91
30.40
29.86
28.38
26.21
23.75
21.54
20.08
19.60
19.98
20.79
21.42
21.39
20.48
18.82
16.79
14.83
13.20
11.86
10.47
8.56
5.71
1.76
-3.07
-8.22
-12.94
-16.50
-18.35
-18.21
-16.08
-12.19
-6.91
-0.80
5.52
11.40
16.28
19.80
21.84
22.52
22.11
20.90
19.24
17.43
15.73
14.32
13.30
12.63
12.19
11.83
11.40
10.78
9.95
8.92
7.74
6.44
5.05
3.50
1.71
-0.43
-2.97
-5.91
-9.16
-12.60
-16.01
-19.13
-21.58
-22.91
-22.70
-20.69
-16.88
-11.64
-5.58
0.55
6.01
10.19
12.65
13.24
12.11
9.73
6.86
4.42
3.21
3.72
5.92
9.25
12.86
15.81
17.45
17.59
16.46
14.57
12.42
10.31
8.22
5.99
3.40
0.35
-3.15
-7.02
-11.08
-15.04
-18.45
-20.70
-21.16
-19.44
-15.54
-9.99
-3.71
2.30
7.22
10.68
12.69
13.63
13.98
14.21
14.64
15.48
16.79
18.52
20.51
22.54
24.31
25.56
26.14
26.10
25.70
25.29
24.97
24.42
22.84
19.24
12.83
3.48
-8.21
-21.09
-33.79
-45.15
-54.34
-60.81
-64.20
-64.22
-60.77
-54.11
-44.98
-34.56
-24.29
-15.52
-9.21
-5.76
-4.94
-5.97
-7.87
-9.67
-10.78
-11.04
-10.65
-9.92
-9.11
-8.29
-7.40
-6.41
-5.40
-4.53
-3.93
-3.60
-3.31
-2.74
-1.67
-0.13
1.58
2.96
3.48
2.89
1.31
-0.66
-2.17
-2.32
-0.51
3.38
8.99
15.61
22.45
28.83
34.32
38.72
41.99
44.14
45.22
45.30
44.55
43.22
41.61
39.99
38.58
37.47
36.58
35.75
34.77
33.46
31.77
29.75
27.52
25.17
22.76
20.26
17.65
14.90
12.05
9.11
6.05
2.78
-0.77
-4.50
-8.05
-10.77
-11.95
-11.07
-8.11
-3.62
1.50
6.21
9.75
11.78
12.34
11.71
10.14
7.84
4.98
1.81
-1.24
-3.75
-5.38
-6.10
-6.15
-6.00
-6.09
-6.67
-7.74
-9.09
-10.52
-11.93
-13.44
-15.28
-17.70
-20.77
-24.37
-28.08
-31.30
-33.42
-33.90
-32.56
-29.50
-25.19
-20.24
-15.22
-10.59
-6.57
-3.31
-0.87
0.63
1.13
0.67
-0.45
-1.81
-2.96
-3.56
-3.59
-3.22
-2.75
-2.42
-2.33
-2.43
-2.65
-2.99
-3.58
-4.63
-6.34
-8.77
-11.87
-15.47
-19.31
-23.12
-26.54
-29.14
-30.49
-30.29
-28.41
-25.07
-20.69
-15.87
-11.14
-6.90
-3.42
-0.86
0.67
1.06
0.35
-1.24
-3.33
-5.45
-7.13
-8.11
-8.41
-8.27
-8.04
-8.08
-8.53
-9.35
-10.34
-11.30
-12.11
-12.86
-13.81
-15.34
-17.76
-21.14
-25.16
-29.09
-31.89
-32.57
-30.42
-25.37
-17.91
-8.97
0.42
9.34
17.21
23.75
28.96
32.99
36.01
38.14
39.49
40.13
40.22
40.11
40.28
41.22
43.17
45.82
48.29
49.31
47.68
42.80
34.96
25.31
15.35
6.23
-1.82
-9.62
-18.64
-30.16
-44.55
-60.86
-77.05
-90.56
-99.07
-101.11
-96.62
-86.94
-74.57
-62.54
-53.45
-48.74
-48.31
-50.77
-53.93
-55.66
-54.36
-49.25
-40.42
-28.77
-15.64
-2.10
11.92
27.97
48.33
74.21
103.83
132.08
152.19
159.01
151.84
134.93
115.42
99.57
89.93
85.03
81.49
76.96
71.77
68.26
68.59
72.58
77.44
79.34
75.80
67.15
56.63
48.60
46.36
50.69
59.59
69.24
75.67
76.24
70.42
59.74
47.04
35.34
26.83
22.23
20.70
20.45
19.57
16.85
12.20
6.56
1.29
-2.49
-4.36
-4.76
-4.64
-5.03
-6.54
-9.10
-12.07
-14.54
-15.72
-15.24
-13.25
-10.31
-7.08
-4.10
-1.65
0.27
1.78
2.96
3.65
3.57
2.33
-0.37
-4.62
-10.24
-16.84
-23.75
-29.98
-34.11
-34.56
-29.98
-20.00
-5.64
10.58
25.32
35.49
39.15
36.04
27.37
15.05
1.03
-13.22
-26.65
-38.44
-47.81
-54.11
-56.97
-56.59
-53.70
-49.35
-44.58
-40.13
-36.32
-33.12
-30.36
-27.90
-25.81
-24.29
-23.60
-23.87
-25.02
-26.79
-28.78
-30.63
-32.13
-33.27
-34.16
-34.93
-35.64
-36.15
-36.17
-35.30
-33.26
-29.99
-25.86
-21.58
-18.09
-16.22
-16.39
-18.45
-21.68
-24.96
-27.16
-27.35
-25.06
-20.23
-13.16
-4.36
5.56
15.88
25.84
34.66
41.57
46.00
47.61
46.48
43.13
38.34
32.99
27.86
23.38
19.72
16.83
14.55
12.74
11.20
9.71
7.98
5.67
2.57
-1.42
-6.21
-11.48
-16.79
-21.55
-25.14
-27.03
-26.93
-24.90
-21.34
-16.88
-12.15
-7.67
-3.76
-0.57
1.82
3.30
3.78
3.23
1.78
-0.35
-2.75
-5.03
-6.83
-7.95
-8.39
-8.31
-7.90
-7.29
-6.55
-5.64
-4.64
-3.73
-3.28
-3.66
-5.15
-7.68
-10.87
-14.12
-16.79
-18.47
-18.96
-18.30
-16.59
-13.95
-10.46
-6.29
-1.74
2.70
6.47
9.11
10.35
10.24
9.06
7.19
5.03
2.85
0.83
-0.97
-2.65
-4.40
-6.47
-9.07
-12.23
-15.72
-19.05
-21.61
-22.88
-22.61
-20.93
-18.32
-15.44
-12.91
-11.16
-10.21
-9.75
-9.26
-8.20
-6.24
-3.30
0.43
4.61
8.82
12.65
15.77
17.88
18.77
18.38
16.79
14.32
11.39
8.53
6.18
4.63
3.92
3.89
4.22
4.56
4.64
4.38
3.83
3.11
2.31
1.40
0.24
-1.37
-3.60
-6.42
-9.60
-12.67
-15.08
-16.30
-16.02
-14.23
-11.17
-7.28
-3.01
1.26
5.19
8.52
10.99
12.42
12.67
11.80
10.05
7.80
5.48
3.46
1.90
0.82
0.10
-0.48
-1.04
-1.72
-2.55
-3.52
-4.53
-5.56
-6.60
-7.75
-9.20
-11.14
-13.66
-16.68
-19.81
-22.51
-24.14
-24.29
-22.78
-19.79
-15.71
-11.08
-6.41
-2.10
1.57
4.42
6.32
7.18
6.97
5.79
3.90
1.70
-0.42
-2.17
-3.46
-4.41
-5.18
-5.87
-6.46
-6.90
-7.20
-7.50
-8.04
-9.03
-10.53
-12.41
-14.51
-16.65
-18.69
-20.42
-21.52
-21.60
-20.29
-17.48
-13.36
-8.36
-3.02
2.24
7.12
11.34
14.58
16.41
16.48
14.71
11.43
7.37
3.38
0.19
-1.83
-2.77
-2.96
-2.88
-2.85
-3.06
-3.50
-4.16
-5.01
-6.07
-7.42
-9.07
-11.01
-13.21
-15.53
-17.81
-19.77
-21.05
-21.27
-20.11
-17.40
-13.23
-7.94
-2.10
3.68
8.75
12.61
14.96
15.68
14.90
12.94
10.32
7.60
5.31
3.80
3.11
3.05
3.24
3.29
2.93
2.09
0.80
-0.86
-2.84
-5.19
-7.99
-11.27
-14.97
-18.88
-22.57
-25.53
-27.20
-27.14
-25.18
-21.47
-16.45
-10.72
-4.94
0.32
4.68
7.88
9.87
10.76
10.80
10.31
9.64
9.03
8.58
8.32
8.18
8.12
8.13
8.18
8.22
8.20
8.00
7.56
6.84
5.83
4.48
2.75
0.61
-1.88
-4.54
-7.05
-9.06
-10.20
-10.21
-8.99
-6.63
-3.43
0.19
3.66
6.48
8.26
8.82
8.18
6.52
4.04
1.01
-2.29
-5.50
-8.18
-9.98
-10.69
-10.39
-9.45
-8.33
-7.48
-7.05
-6.94
-6.92
-6.81
-6.72
-7.03
-8.28
-10.85
-14.69
-19.14
-23.08
-25.32
-25.04
-22.19
-17.48
-12.17
-7.64
-5.00
-4.82
-7.15
-11.45
-16.74
-21.64
-24.58
-24.21
-19.84
-11.82
-1.55
8.96
17.70
23.28
25.09
23.19
17.99
10.03
-0.10
-11.60
-23.40
-34.34
-43.52
-50.65
-56.23
-61.29
-67.02
-74.17
-82.76
-92.01
-100.65
-107.26
-110.73
-110.53
-106.78
-100.18
-91.74
-82.59
-73.68
-65.65
-58.79
-53.06
-48.21
-43.85
-39.58
-35.07
-30.07
-24.51
-18.51
-12.36
-6.51
-1.47
2.30
4.57
5.38
5.14
4.43
3.84
3.76
4.22
4.87
5.19
4.71
3.28
1.13
-1.17
-2.95
-3.61
-2.86
-0.69
2.69
6.96
11.84
17.03
22.22
27.00
30.90
33.50
34.56
34.12
32.48
30.09
27.39
24.71
22.19
19.87
17.78
15.92
14.37
13.18
12.33
11.69
10.98
9.84
7.88
4.91
1.04
-3.20
-6.95
-9.29
-9.50
-7.34
-3.09
2.55
8.75
14.78
20.15
24.62
28.07
30.39
31.53
31.49
30.46
28.81
27.07
25.67
24.85
24.55
24.50
24.40
24.03
23.36
22.52
21.60
20.61
19.40
17.67
15.11
11.49
6.75
1.13
-4.85
-10.40
-14.60
-16.64
-16.03
-12.75
-7.20
-0.13
7.63
15.28
22.10
27.56
31.28
33.14
33.25
32.01
29.96
27.62
25.45
23.63
22.22
21.15
20.31
19.64
19.03
18.40
17.64
16.63
15.27
13.49
11.19
8.29
4.75
0.63
-3.87
-8.30
-12.05
-14.41
-14.77
-12.82
-8.63
-2.68
4.29
11.48
18.28
24.27
29.26
33.11
35.70
36.83
36.41
34.61
32.01
29.58
28.38
29.24
32.31
37.02
42.15
46.34
48.53
48.33
46.02
42.30
37.92
33.38
28.79
23.99
18.66
12.53
5.41
-2.57
-10.95
-18.90
-25.35
-29.29
-30.12
-27.88
-23.22
-17.11
-10.56
-4.30
1.23
5.84
9.40
11.81
13.02
13.13
12.39
11.16
9.84
8.67
7.77
7.09
6.51
5.90
5.21
4.51
3.93
3.64
3.74
4.12
4.49
4.35
3.24
0.82
-2.82
-7.22
-11.52
-14.77
-16.20
-15.43
-12.58
-8.22
-3.07
2.14
6.89
10.86
13.84
15.73
16.44
16.02
14.63
12.59
10.30
8.10
6.22
4.75
3.73
3.16
3.01
3.24
3.72
4.24
4.55
4.34
3.36
1.41
-1.61
-5.63
-10.33
-15.19
-19.47
-22.45
-23.57
-22.60
-19.62
-15.09
-9.56
-3.63
2.15
7.35
11.67
14.86
16.82
17.53
17.11
15.80
13.98
12.09
10.55
9.65
9.40
9.64
10.05
10.33
10.32
9.99
9.37
8.45
7.16
5.32
2.80
-0.51
-4.53
-9.03
-13.53
-17.43
-20.00
-20.64
-19.00
-15.18
-9.64
-3.14
3.51
9.58
14.54
18.11
20.22
21.00
20.74
19.86
18.75
17.72
16.89
16.28
15.79
15.26
14.58
13.59
12.20
10.37
8.19
5.87
3.64
1.66
-0.13
-1.99
-4.29
-7.31
-11.01
-14.97
-18.41
-20.45
-20.40
-18.03
-13.74
-8.33
-2.73
2.30
6.41
9.55
11.83
13.31
13.90
13.53
12.23
10.36
8.46
7.11
6.66
7.04
7.86
8.58
8.82
8.53
7.90
7.27
6.81
6.44
5.80
4.41
1.91
-1.81
-6.57
-11.97
-17.42
-22.32
-26.06
-28.12
-28.13
-25.98
-21.87
-16.28
-9.90
-3.47
2.37
7.19
10.69
12.80
13.57
13.16
11.83
9.93
7.86
6.00
4.69
4.11
4.25
4.93
5.83
6.67
7.22
7.41
7.28
6.87
6.18
5.11
3.45
1.07
-2.02
-5.67
-9.47
-12.93
-15.48
-16.66
-16.14
-13.87
-10.12
-5.39
-0.37
4.36
8.34
11.41
13.50
14.65
14.85
14.15
12.68
10.79
8.91
7.47
6.70
6.59
6.92
7.39
7.75
7.91
7.88
7.71
7.43
7.07
6.56
5.77
4.53
2.64
-0.05
-3.46
-7.23
-10.70
-13.09
-13.76
-12.39
-9.06
-4.23
1.51
7.51
13.19
18.15
22.05
24.66
25.90
25.82
24.65
22.69
20.30
17.79
15.34
13.05
10.92
8.95
7.26
6.09
5.73
6.41
8.08
10.45
13.02
15.29
16.94
17.87
18.11
17.60
16.27
13.98
10.87
7.47
4.64
3.37
4.33
7.61
12.60
18.31
23.70
28.05
31.08
32.87
33.54
33.15
31.52
28.55
24.36
19.41
14.49
10.36
7.54
6.07
5.62
5.65
5.63
5.21
4.22
2.69
0.70
-1.62
-4.12
-6.62
-8.96
-10.99
-12.71
-14.22
-15.71
-17.36
-19.20
-21.00
-22.33
-22.59
-21.31
-18.35
-14.00
-8.91
-3.92
0.25
3.15
4.60
4.65
3.37
0.86
-2.79
-7.39
-12.57
-17.75
-22.26
-25.55
-27.28
-27.41
-26.23
-24.16
-21.76
-19.56
-18.05
-17.59
-18.35
-20.37
-23.53
-27.71
-32.85
-39.07
-46.54
-55.35
-65.26
-75.66
-85.59
-94.08
-100.35
-103.92
-104.66
-102.60
-98.04
-91.61
-84.40
-77.76
-72.91
-70.34
-69.43
-68.45
-65.15
-57.48
-44.50
-26.62
-5.53
16.40
36.89
54.37
68.30
79.11
87.74
95.18
102.02
108.32
113.74
117.91
120.55
121.60
121.13
119.20
115.95
111.67
106.90
102.34
98.58
95.90
94.09
92.60
90.77
88.06
84.18
79.09
72.93
65.94
58.40
50.62
42.87
35.34
28.10
21.11
14.31
7.68
1.28
-4.80
-10.49
-15.80
-20.82
-25.70
-30.60
-35.70
-41.04
-46.57
-52.06
-57.09
-61.04
-63.31
-63.44
-61.24
-56.92
-50.91
-43.79
-36.12
-28.33
-20.78
-13.73
-7.48
-2.36
1.38
3.59
4.36
4.01
3.01
1.91
1.09
0.74
0.85
1.20
1.56
1.67
1.40
0.66
-0.59
-2.33
-4.56
-7.17
-10.06
-13.04
-15.94
-18.66
-21.06
-22.98
-24.18
-24.32
-23.09
-20.35
-16.27
-11.33
-6.22
-1.62
1.94
4.21
5.17
4.94
3.71
1.67
-0.90
-3.62
-5.94
-7.27
-7.14
-5.30
-1.81
3.00
8.65
14.66
20.66
26.34
31.47
35.82
39.10
41.00
41.28
39.81
36.74
32.53
27.95
23.87
21.10
20.11
21.02
23.51
27.07
31.10
35.07
38.52
41.09
42.50
42.57
41.25
38.69
35.22
31.26
27.17
23.17
19.37
15.74
12.23
8.80
5.46
2.32
-0.49
-2.83
-4.70
-6.20
-7.60
-9.26
-11.47
-14.36
-17.84
-21.57
-25.14
-28.16
-30.37
-31.67
-32.07
-31.66
-30.56
-29.00
-27.30
-25.85
-24.99
-24.94
-25.71
-27.09
-28.77
-30.39
-31.75
-32.76
-33.44
-33.90
-34.24
-34.51
-34.81
-35.12
-35.44
-35.70
-35.87
-35.97
-36.13
-36.56
-37.46
-38.90
-40.77
-42.74
-44.36
-45.18
-44.85
-43.23
-40.35
-36.45
-31.91
-27.21
-22.85
-19.24
-16.63
-15.00
-14.15
-13.76
-13.48
-13.10
-12.51
-11.72
-10.76
-9.64
-8.34
-6.81
-5.07
-3.25
-1.55
-0.23
0.51
0.58
-0.00
-1.17
-2.82
-4.82
-6.94
-8.81
-9.99
-10.01
-8.56
-5.54
-1.19
3.98
9.30
14.06
17.68
19.85
20.50
19.91
18.55
17.02
15.85
15.39
15.70
16.61
17.71
18.59
18.86
18.32
16.95
14.89
12.32
9.40
6.19
2.59
-1.53
-6.26
-11.53
-17.00
-22.05
-25.85
-27.56
-26.60
-22.91
-17.17
-10.66
-5.04
-1.77
-1.71
-4.82
-10.13
-16.19
-21.52
-25.08
-26.60
-26.42
-25.25
-23.76
-22.31
-20.98
-19.67
-18.28
-16.85
-15.43
-14.09
-12.79
-11.53
-10.43
-9.83
-10.22
-12.04
-15.38
-19.90
-24.84
-29.31
-32.51
-33.95
-33.48
-31.26
-27.66
-23.13
-18.18
-13.28
-8.84
-5.19
-2.56
-1.11
-0.84
-1.61
-3.08
-4.80
-6.29
-7.23
-7.51
-7.22
-6.58
-5.75
-4.84
-3.88
-2.89
-2.00
-1.51
-1.76
-3.11
-5.73
-9.50
-13.96
-18.37
-21.84
-23.60
-23.15
-20.38
-15.44
-8.72
-0.66
8.21
17.26
25.73
32.82
37.83
40.45
40.83
39.51
37.25
34.67
32.12
29.64
27.08
24.27
21.17
17.77
14.12
10.17
5.83
1.08
-3.99
-9.04
-13.65
-17.39
-19.98
-21.29
-21.26
-19.91
-17.24
-13.38
-8.61
-3.39
1.74
6.33
10.09
12.96
14.99
16.33
17.09
17.39
17.35
17.08
16.70
16.27
15.87
15.47
15.03
14.41
13.49
12.16
10.38
8.25
5.94
3.65
1.48
-0.57
-2.55
-4.44
-6.04
-6.97
-6.71
-4.86
-1.30
3.78
9.87
16.27
22.31
27.37
31.01
33.06
33.51
32.57
30.59
28.01
25.26
22.69
20.59
19.04
18.00
17.29
16.68
15.93
14.87
13.46
11.73
9.76
7.62
5.38
3.04
0.57
-2.13
-5.18
-8.58
-12.16
-15.51
-18.02
-19.08
-18.33
-15.76
-11.73
-6.85
-1.71
3.21
7.69
11.62
14.99
17.73
19.74
20.92
21.28
20.94
20.14
19.17
18.32
17.72
17.41
17.32
17.30
17.18
16.82
16.15
15.11
13.71
12.00
9.99
7.72
5.20
2.39
-0.71
-4.10
-7.68
-11.27
-14.52
-17.00
-18.25
-17.97
-16.08
-12.85
-8.76
-4.42
-0.32
3.27
6.27
8.71
10.61
11.88
12.35
11.85
10.41
8.30
5.99
4.02
2.79
2.36
2.54
2.94
3.21
3.16
2.82
2.32
1.76
1.11
0.26
-0.98
-2.66
-4.72
-7.02
-9.46
-12.01
-14.67
-17.35
-19.74
-21.28
-21.38
-19.61
-15.97
-10.89
-5.08
0.63
5.62
9.57
12.43
14.31
15.35
15.63
15.21
14.22
12.89
11.60
10.72
10.50
10.96
11.86
12.81
13.41
13.46
12.98
12.15
11.18
10.19
9.10
7.71
5.79
3.27
0.22
-3.11
-6.37
-9.25
-11.53
-13.01
-13.57
-13.09
-11.48
-8.76
-5.06
-0.78
3.54
7.21
9.66
10.47
9.58
7.29
4.17
0.85
-2.08
-4.24
-5.45
-5.68
-4.95
-3.33
-0.96
1.90
4.87
7.48
9.36
10.26
10.16
9.22
7.65
5.68
3.52
1.34
-0.70
-2.51
-4.06
-5.39
-6.45
-7.14
-7.19
-6.32
-4.38
-1.48
2.01
5.58
8.75
11.23
12.96
14.07
14.76
15.20
15.54
15.90
16.39
17.08
17.96
18.82
19.39
19.36
18.60
17.18
15.34
13.34
11.35
9.31
7.03
4.41
1.47
-1.52
-4.20
-6.31
-7.85
-9.09
-10.43
-12.25
-14.73
-17.81
-21.20
-24.50
-27.26
-29.12
-29.88
-29.62
-28.65
-27.54
-26.93
-27.36
-29.02
-31.66
-34.64
-37.12
-38.35
-37.96
-36.07
-33.18
-29.88
-26.64
-23.64
-20.71
-17.53
-13.85
-9.58
-4.89
-0.13
4.29
7.99
10.69
12.26
12.72
12.16
10.82
8.97
6.82
4.55
2.18
-0.35
-3.07
-5.91
-8.60
-10.68
-11.63
-11.03
-8.62
-4.44
1.22
7.85
14.77
21.26
26.61
30.28
31.99
31.79
30.05
27.35
24.32
21.48
19.11
17.24
15.74
14.39
13.04
11.55
9.82
7.74
5.17
1.99
-1.77
-5.79
-9.53
-12.25
-13.33
-12.51
-10.13
-7.14
-4.88
-4.52
-6.59
-10.66
-15.44
-19.35
-21.13
-20.35
-17.46
-13.50
-9.48
-6.06
-3.46
-1.62
-0.46
-0.04
-0.42
-1.52
-3.03
-4.49
-5.44
-5.69
-5.32
-4.70
-4.23
-4.26
-4.87
-5.93
-7.13
-8.14
-8.73
-8.89
-8.86
-9.03
-9.83
-11.42
-13.65
-15.99
-17.75
-18.25
-17.12
-14.35
-10.24
-5.23
0.21
5.68
10.85
15.45
19.18
21.82
23.24
23.49
22.82
21.61
20.36
19.44
19.11
19.42
20.17
21.07
21.76
21.99
21.59
20.61
19.24
17.73
16.32
15.09
14.01
12.86
11.38
9.36
6.81
3.99
1.42
-0.28
-0.60
0.71
3.57
7.57
12.13
16.71
20.85
24.29
26.86
28.47
29.12
28.83
27.76
26.11
24.14
22.08
20.11
18.33
16.78
15.42
14.20
13.09
12.09
11.31
10.81
10.61
10.50
10.13
9.03
6.83
3.41
-1.00
-5.94
-10.77
-14.80
-17.44
-18.26
-17.09
-14.04
-9.52
-4.19
1.18
5.91
9.49
11.62
12.27
11.53
9.70
7.15
4.34
1.66
-0.62
-2.43
-3.89
-5.19
-6.53
-7.97
-9.51
-11.01
-12.37
-13.55
-14.59
-15.62
-16.81
-18.37
-20.38
-22.84
-25.58
-28.28
-30.58
-32.11
-32.53
-31.63
-29.37
-25.92
-21.70
-17.34
-13.50
-10.72
-9.24
-9.02
-9.79
-11.24
-13.09
-15.14
-17.18
-19.01
-20.44
-21.41
-22.03
-22.52
-23.19
-24.23
-25.68
-27.40
-29.08
-30.41
-31.13
-31.11
-30.42
-29.29
-28.03
-26.80
-25.46
-23.55
-20.39
-15.38
-8.27
0.69
10.78
21.10
30.73
39.00
45.62
50.61
54.40
57.63
61.08
65.35
70.70
76.79
82.75
87.43
89.83
89.47
86.53
81.69
75.62
68.63
60.51
50.73
38.99
25.64
11.78
-1.14
-12.00
-20.65
-28.07
-35.90
-45.65
-57.88
-71.72
-85.27
-96.18
-102.58
-103.86
-100.97
-96.42
-93.76
-96.78
-108.37
-129.18
-156.79
-185.64
-208.07
-216.28
-204.89
-173.11
-125.58
-71.29
-20.78
17.45
39.60
47.28
45.93
41.92
39.76
40.85
43.95
46.95
48.57
48.94
49.09
49.98
51.58
53.11
53.74
53.41
53.06
54.18
58.04
64.91
73.76
82.54
89.01
91.60
90.04
85.37
79.53
74.52
71.59
70.90
71.62
72.47
72.38
70.94
68.50
65.95
64.24
63.89
64.88
66.61
68.27
69.07
68.58
66.66
63.49
59.36
54.60
49.50
44.32
39.27
34.55
30.36
26.83
24.11
22.32
21.48
21.48
22.01
22.62
22.76
22.02
20.18
17.37
13.94
10.37
7.11
4.44
2.42
0.94
-0.19
-1.13
-1.99
-2.78
-3.52
-4.28
-5.15
-6.19
-7.44
-8.90
-10.54
-12.43
-14.67
-17.31
-20.23
-23.11
-25.37
-26.48
-26.05
-24.06
-20.89
-17.11
-13.36
-10.12
-7.67
-6.04
-5.15
-4.88
-5.14
-5.80
-6.74
-7.80
-8.82
-9.65
-10.26
-10.68
-11.04
-11.48
-12.14
-13.04
-14.13
-15.23
-16.15
-16.70
-16.89
-16.93
-17.20
-18.17
-20.10
-22.91
-26.09
-28.76
-30.06
-29.46
-26.99
-23.35
-19.58
-16.70
-15.27
-15.23
-15.96
-16.60
-16.55
-15.76
-14.82
-14.67
-16.13
-19.47
-24.09
-28.68
-31.65
-31.80
-28.88
-23.77
-18.26
-14.51
-14.46
-19.27
-29.02
-42.53
-57.45
-70.67
-79.19
-81.16
-76.88
-68.98
-61.62
-58.76
-62.46
-71.86
-83.50
-92.75
-95.68
-90.31
-76.94
-57.54
-34.70
-10.84
12.16
32.87
50.18
63.23
71.55
75.33
75.29
72.63
68.53
63.82
58.67
52.51
44.38
33.38
19.28
2.74
-14.66
-30.94
-44.48
-54.58
-61.66
-66.94
-71.61
-76.22
-80.19
-82.05
-80.15
-73.45
-62.17
-48.02
-33.78
-22.55
-16.84
-17.88
-25.19
-36.83
-49.78
-60.84
-67.49
-68.60
-64.63
-57.31
-48.82
-41.02
-34.83
-30.25
-26.74
-23.80
-21.37
-19.76
-19.26
-19.75
-20.62
-21.11
-20.82
-20.06
-19.71
-20.64
-23.07
-26.24
-28.66
-28.81
-25.92
-20.40
-13.61
-7.25
-2.51
0.30
1.75
2.77
4.10
6.00
8.24
10.35
11.97
12.93
13.34
13.47
13.58
13.89
14.46
15.32
16.41
17.68
19.10
20.67
22.44
24.45
26.61
28.67
30.27
31.02
30.69
29.27
27.02
24.33
21.64
19.32
17.67
16.88
17.09
18.33
20.52
23.36
26.36
28.96
30.61
30.96
29.94
27.72
24.67
21.23
17.81
14.69
12.07
9.98
8.41
7.24
6.31
5.41
4.36
3.06
1.41
-0.56
-2.84
-5.44
-8.34
-11.55
-14.99
-18.53
-21.86
-24.59
-26.22
-26.35
-24.73
-21.45
-16.83
-11.43
-5.83
-0.53
4.14
7.94
10.69
12.26
12.62
11.94
10.65
9.32
8.46
8.30
8.70
9.28
9.58
9.32
8.47
7.26
5.97
4.87
4.05
3.44
2.80
1.80
0.14
-2.40
-5.75
-9.54
-13.11
-15.60
-16.25
-14.64
-10.84
-5.46
0.60
6.38
11.21
14.77
17.20
18.81
19.93
20.75
21.26
21.40
21.16
20.68
20.23
20.07
20.31
20.89
21.56
22.03
22.12
21.82
21.30
20.74
20.22
19.63
18.72
17.23
14.97
11.97
8.33
4.33
0.25
-3.54
-6.63
-8.55
-8.86
-7.26
-3.78
1.16
6.90
12.63
17.72
21.75
24.62
26.38
27.16
27.08
26.24
24.76
22.90
20.96
19.27
18.05
17.32
16.90
16.54
16.02
15.19
14.09
12.78
11.34
9.78
7.98
5.79
3.09
-0.18
-3.90
-7.79
-11.43
-14.37
-16.22
-16.75
-15.91
-13.79
-10.60
-6.62
-2.12
2.62
7.28
11.60
15.29
18.13
19.90
20.49
19.94
18.48
16.54
14.65
13.19
12.32
11.94
11.73
11.45
11.02
10.61
10.43
10.62
11.09
11.58
11.74
11.33
10.29
8.70
6.65
4.25
1.59
-1.16
-3.64
-5.30
-5.51
-3.87
-0.32
4.65
10.19
15.30
19.09
21.12
21.42
20.44
18.87
17.34
16.26
15.72
15.56
15.43
15.03
14.16
12.77
11.01
9.11
7.33
5.87
4.82
4.13
3.62
3.02
2.05
0.51
-1.63
-4.29
-7.36
-10.68
-14.07
-17.23
-19.69
-20.87
-20.28
-17.79
-13.71
-8.74
-3.72
0.66
4.07
6.55
8.34
9.73
10.90
11.90
12.78
13.57
14.36
15.18
16.08
17.01
17.87
18.45
18.53
17.88
16.40
14.12
11.30
8.26
5.32
2.58
-0.09
-2.95
-6.28
-10.17
-14.52
-19.03
-23.32
-27.08
-30.02
-31.95
-32.67
-31.99
-29.83
-26.32
-21.79
-16.82
-12.02
-7.96
-5.02
-3.37
-2.98
-3.68
-5.16
-7.06
-8.96
-10.48
-11.38
-11.58
-11.15
-10.30
-9.25
-8.20
-7.28
-6.50
-5.82
-5.21
-4.69
-4.37
-4.43
-5.06
-6.43
-8.51
-11.06
-13.63
-15.69
-16.77
-16.53
-14.92
-12.02
-8.15
-3.71
0.82
4.96
8.28
10.52
11.61
11.68
10.98
9.76
8.24
6.61
5.01
3.63
2.58
1.93
1.57
1.29
0.89
0.26
-0.56
-1.45
-2.33
-3.23
-4.36
-6.01
-8.38
-11.54
-15.25
-19.05
-22.33
-24.44
-24.86
-23.39
-20.15
-15.60
-10.31
-4.92
0.15
4.55
8.10
10.61
12.00
12.30
11.71
10.61
9.40
8.43
7.87
7.68
7.72
7.84
7.86
7.70
7.31
6.69
5.90
4.96
3.86
2.49
0.66
-1.82
-4.96
-8.60
-12.36
-15.75
-18.25
-19.49
-19.22
-17.39
-14.14
-9.78
-4.78
0.30
4.89
8.50
10.79
11.65
11.17
9.63
7.45
5.11
3.05
1.63
1.03
1.23
2.00
3.02
3.91
4.43
4.46
4.09
3.50
2.82
2.05
1.08
-0.31
-2.29
-4.85
-7.81
-10.79
-13.30
-14.85
-14.99
-13.51
-10.41
-6.02
-0.89
4.36
9.15
13.09
15.93
17.62
18.12
17.49
15.85
13.50
10.85
8.45
6.71
5.84
5.78
6.21
6.75
7.07
6.97
6.45
5.54
4.35
2.96
1.44
-0.22
-2.10
-4.28
-6.85
-9.77
-12.79
-15.44
-17.18
-17.56
-16.42
-13.91
-10.45
-6.52
-2.50
1.33
4.76
7.55
9.40
10.06
9.50
7.98
6.03
4.24
3.07
2.65
2.80
3.16
3.40
3.33
2.96
2.41
1.78
1.14
0.46
-0.38
-1.49
-3.03
-5.05
-7.60
-10.56
-13.66
-16.48
-18.46
-19.11
-18.11
-15.43
-11.37
-6.41
-1.19
3.74
7.92
11.03
12.94
13.65
13.33
12.25
10.77
9.25
7.98
7.10
6.63
6.48
6.47
6.46
6.32
6.02
5.53
4.86
3.97
2.78
1.19
-0.93
-3.63
-6.86
-10.39
-13.83
-16.66
-18.37
-18.53
-16.96
-13.81
-9.49
-4.54
0.44
5.00
8.80
11.64
13.41
14.12
13.85
12.83
11.39
9.88
8.62
7.78
7.38
7.27
7.26
7.15
6.84
6.34
5.70
5.03
4.34
3.59
2.60
1.12
-1.07
-4.07
-7.75
-11.69
-15.29
-17.93
-19.12
-18.68
-16.70
-13.52
-9.60
-5.34
-1.14
2.70
5.92
8.29
9.70
10.12
9.66
8.57
7.12
5.56
4.11
2.90
2.04
1.54
1.39
1.51
1.76
2.04
2.26
2.35
2.30
2.03
1.45
0.47
-0.94
-2.77
-4.90
-7.11
-9.14
-10.62
-11.13
-10.27
-7.84
-3.96
0.92
6.15
11.09
15.37
18.86
21.56
23.43
24.26
23.73
21.68
18.27
14.11
10.10
7.19
5.99
6.62
8.60
11.04
12.92
13.41
12.18
9.43
5.80
2.07
-1.10
-3.41
-4.84
-5.60
-5.95
-6.14
-6.31
-6.61
-7.08
-7.61
-7.97
-7.85
-6.96
-5.20
-2.65
0.44
3.78
7.11
10.20
12.80
14.63
15.49
15.37
14.50
13.33
12.37
12.02
12.39
13.32
14.48
15.53
16.21
16.51
16.52
16.49
16.60
16.91
17.24
17.16
16.22
14.04
10.54
5.99
0.98
-3.75
-7.53
-9.93
-10.80
-10.29
-8.74
-6.53
-4.07
-1.73
0.21
1.51
2.06
1.84
0.91
-0.56
-2.35
-4.22
-5.91
-7.18
-7.84
-7.86
-7.34
-6.58
-5.92
-5.69
-6.03
-6.88
-7.98
-9.01
-9.68
-9.76
-9.21
-8.12
-6.70
-5.16
-3.64
-2.06
-0.18
2.33
5.76
10.12
15.11
20.18
24.70
28.17
30.31
31.12
30.82
29.69
27.98
25.81
23.24
20.31
17.09
13.73
10.42
7.28
4.29
1.25
-2.08
-5.84
-9.95
-14.13
-18.00
-21.23
-23.73
-25.69
-27.47
-29.44
-31.79
-34.42
-36.98
-38.94
-39.77
-39.08
-36.75
-32.92
-27.92
-22.19
-16.12
-10.07
-4.31
0.90
5.34
8.78
11.10
12.26
12.43
11.91
11.12
10.43
10.07
10.08
10.35
10.71
10.96
10.95
10.57
9.74
8.44
6.73
4.74
2.60
0.39
-1.93
-4.46
-7.26
-10.21
-13.00
-15.12
-16.08
-15.54
-13.48
-10.22
-6.29
-2.22
1.56
4.81
7.42
9.31
10.39
10.58
9.87
8.49
6.83
5.30
4.23
3.72
3.58
3.54
3.38
3.00
2.47
1.95
1.47
0.99
0.36
-0.64
-2.15
-4.27
-7.03
-10.38
-14.13
-17.88
-21.02
-22.79
-22.55
-20.03
-15.46
-9.61
-3.50
1.94
6.13
9.03
10.94
12.33
13.58
14.87
16.24
17.66
19.06
20.30
21.12
21.07
19.70
16.72
12.20
6.62
0.73
-4.67
-9.04
-12.21
-14.36
-15.86
-17.13
-18.40
-19.74
-21.02
-22.04
-22.57
-22.41
-21.42
-19.49
-16.57
-12.68
-8.00
-2.90
2.17
6.69
10.30
12.83
14.32
14.99
15.10
14.88
14.48
14.01
13.52
13.06
12.65
12.28
11.92
11.52
11.02
10.36
9.56
8.66
7.71
6.80
5.87
4.82
3.46
1.58
-0.95
-4.07
-7.53
-10.89
-13.55
-14.95
-14.68
-12.65
-9.10
-4.57
0.28
4.79
8.54
11.30
13.07
13.91
13.94
13.28
12.12
10.70
9.32
8.28
7.75
7.70
7.93
8.14
8.12
7.78
7.22
6.56
5.87
5.13
4.20
2.96
1.32
-0.70
-3.04
-5.61
-8.29
-10.92
-13.23
-14.86
-15.44
-14.75
-12.80
-9.87
-6.38
-2.82
0.42
3.07
5.04
6.26
6.73
6.45
5.51
4.07
2.43
0.90
-0.23
-0.81
-0.83
-0.42
0.25
1.01
1.75
2.37
2.82
3.05
3.03
2.72
2.04
0.87
-0.90
-3.28
-6.08
-8.89
-11.15
-12.34
-12.11
-10.39
-7.36
-3.43
0.99
5.44
9.55
13.01
15.62
17.31
18.11
18.15
17.62
16.72
15.73
14.85
14.21
13.79
13.44
12.93
12.15
11.18
10.29
9.84
10.06
10.98
12.42
14.05
15.55
16.63
17.08
16.77
15.70
14.07
12.32
11.00
10.68
11.70
14.09
17.51
21.43
25.24
28.43
30.67
31.85
31.98
31.23
29.81
27.97
25.90
23.78
21.78
20.04
18.69
17.79
17.27
16.89
16.36
15.38
13.88
12.03
10.21
8.76
7.90
7.61
7.66
7.81
7.83
7.50
6.67
5.26
3.31
1.10
-0.85
-1.91
-1.52
0.56
4.16
8.71
13.42
17.50
20.36
21.75
21.75
20.75
19.28
17.85
16.77
16.08
15.61
15.06
14.20
13.00
11.62
10.29
9.20
8.30
7.39
6.16
4.38
1.98
-0.95
-4.21
-7.63
-11.07
-14.41
-17.52
-20.12
-21.91
-22.58
-21.98
-20.24
-17.77
-15.21
-13.20
-12.19
-12.29
-13.29
-14.79
-16.40
-17.88
-19.14
-20.19
-21.02
-21.57
-21.82
-21.80
-21.70
-21.80
-22.38
-23.58
-25.38
-27.61
-29.99
-32.31
-34.43
-36.35
-38.21
-40.17
-42.40
-44.93
-47.57
-49.92
-51.41
-51.54
-50.03
-46.95
-42.69
-37.86
-33.10
-28.93
-25.71
-23.60
-22.62
-22.57
-23.14
-23.83
-24.19
-23.87
-22.86
-21.44
-20.11
-19.32
-19.32
-20.08
-21.27
-22.50
-23.47
-24.05
-24.27
-24.26
-24.14
-23.99
-23.90
-23.95
-24.22
-24.69
-25.27
-25.70
-25.66
-24.88
-23.17
-20.54
-17.12
-13.18
-9.04
-5.08
-1.72
0.67
1.79
1.55
0.06
-2.31
-5.15
-8.04
-10.65
-12.80
-14.45
-15.66
-16.54
-17.31
-18.10
-19.03
-20.04
-20.98
-21.65
-21.93
-21.91
-21.80
-21.92
-22.47
-23.39
-24.34
-24.83
-24.41
-22.79
-19.99
-16.23
-11.88
-7.30
-2.74
1.63
5.73
9.49
12.78
15.45
17.30
18.22
18.20
17.39
16.07
14.61
13.34
12.47
12.05
11.95
12.00
12.07
12.07
12.01
11.95
11.89
11.69
11.17
10.17
8.57
6.40
3.78
0.87
-2.12
-5.00
-7.43
-9.06
-9.51
-8.60
-6.39
-3.22
0.36
3.86
6.90
9.36
11.29
12.75
13.79
14.35
14.39
13.91
13.09
12.20
11.53
11.23
11.29
11.53
11.69
11.59
11.18
10.54
9.85
9.23
8.71
8.16
7.37
6.15
4.39
2.13
-0.48
-3.11
-5.36
-6.80
-7.07
-6.00
-3.63
-0.23
3.79
7.97
11.88
15.22
17.80
19.50
20.33
20.38
19.83
18.89
17.80
16.71
15.77
15.03
14.54
14.31
14.27
14.30
14.25
13.98
13.43
12.64
11.74
10.81
9.85
8.74
7.27
5.30
2.84
0.12
-2.46
-4.42
-5.38
-5.14
-3.75
-1.43
1.45
4.56
7.61
10.43
12.89
14.85
16.15
16.59
16.04
14.54
12.37
9.94
7.76
6.18
5.28
4.88
4.61
4.17
3.43
2.47
1.52
0.79
0.35
0.10
-0.19
-0.84
-2.06
-3.95
-6.44
-9.30
-12.20
-14.78
-16.66
-17.56
-17.29
-15.78
-13.16
-9.76
-6.01
-2.40
0.68
3.03
4.69
5.78
6.42
6.64
6.34
5.43
3.88
1.84
-0.45
-2.73
-4.84
-6.70
-8.37
-9.88
-11.24
-12.40
-13.33
-14.04
-14.59
-15.17
-15.94
-17.05
-18.57
-20.40
-22.32
-24.01
-25.06
-25.12
-24.00
-21.63
-18.19
-13.97
-9.34
-4.71
-0.45
3.11
5.72
7.22
7.58
6.94
5.57
3.84
2.14
0.78
-0.11
-0.61
-0.92
-1.29
-1.90
-2.80
-3.87
-4.96
-5.97
-6.94
-8.05
-9.54
-11.56
-14.07
-16.83
-19.39
-21.25
-21.96
-21.22
-18.99
-15.44
-10.98
-6.12
-1.41
2.74
6.06
8.45
9.93
10.63
10.69
10.26
9.54
8.74
8.10
7.79
7.83
8.12
8.46
8.69
8.72
8.56
8.27
7.83
7.17
6.15
4.68
2.75
0.43
-2.13
-4.69
-6.93
-8.45
-8.84
-7.82
-5.38
-1.81
2.41
6.75
10.82
14.44
17.59
20.26
22.42
23.99
24.94
25.39
25.55
25.68
25.99
26.55
27.30
28.15
28.98
29.74
30.40
30.94
31.36
31.62
31.72
31.64
31.34
30.77
29.83
28.49
26.89
25.34
24.28
24.09
24.99
26.92
29.57
32.58
35.54
38.19
40.31
41.70
42.16
41.54
39.82
37.19
34.03
30.77
27.85
25.49
23.76
22.53
21.54
20.47
19.03
17.05
14.52
11.58
8.50
5.54
2.84
0.41
-1.88
-4.20
-6.66
-9.25
-11.77
-13.89
-15.22
-15.39
-14.16
-11.54
-7.79
-3.35
1.23
5.45
8.90
11.28
12.42
12.26
10.94
8.78
6.26
3.93
2.21
1.29
1.09
1.30
1.57
1.56
1.14
0.34
-0.68
-1.67
-2.44
-2.93
-3.25
-3.72
-4.68
-6.40
-8.83
-11.64
-14.22
-15.91
-16.22
-14.98
-12.38
-8.86
-5.04
-1.47
1.41
3.41
4.49
4.77
4.43
3.64
2.61
1.54
0.64
0.02
-0.28
-0.38
-0.47
-0.74
-1.29
-2.09
-3.05
-4.09
-5.19
-6.46
-8.01
-9.93
-12.28
-15.03
-18.09
-21.27
-24.28
-26.71
-28.18
-28.46
-27.58
-25.85
-23.66
-21.39
-19.20
-17.14
-15.22
-13.60
-12.55
-12.37
-13.16
-14.75
-16.72
-18.59
-20.05
-21.04
-21.78
-22.53
-23.51
-24.74
-26.16
-27.66
-29.23
-31.00
-33.10
-35.65
-38.65
-41.97
-45.36
-48.49
-51.05
-52.70
-53.23
-52.53
-50.67
-47.84
-44.36
-40.56
-36.74
-33.17
-30.13
-27.84
-26.47
-25.98
-26.18
-26.68
-27.09
-27.11
-26.66
-25.85
-24.93
-24.15
-23.73
-23.78
-24.32
-25.24
-26.32
-27.31
-28.05
-28.55
-29.06
-29.95
-31.55
-33.92
-36.82
-39.74
-42.05
-43.25
-43.04
-41.39
-38.47
-34.59
-30.06
-25.17
-20.19
-15.29
-10.63
-6.29
-2.26
1.45
4.91
8.19
11.37
14.54
17.73
20.88
23.75
25.99
27.23
27.24
26.06
23.97
21.39
18.76
16.37
14.37
12.73
11.35
10.08
8.72
7.13
5.18
2.90
0.50
-1.65
-3.13
-3.51
-2.50
-0.06
3.67
8.32
13.41
18.45
22.97
26.64
29.26
30.81
31.42
31.34
30.95
30.61
30.58
30.93
31.51
31.98
31.94
31.04
29.12
26.22
22.57
18.58
14.71
11.36
8.80
7.08
6.04
5.35
4.72
3.92
2.91
1.84
0.99
0.66
1.10
2.45
4.67
7.63
11.08
14.78
18.51
22.06
25.25
27.86
29.71
30.64
30.63
29.76
28.20
26.18
23.90
21.52
19.16
16.92
14.88
13.08
11.53
10.20
9.05
8.05
7.18
6.41
5.63
4.63
3.16
1.06
-1.68
-4.83
-8.00
-10.68
-12.43
-12.92
-12.04
-9.80
-6.40
-2.15
2.54
7.15
11.21
14.29
16.15
16.77
16.31
15.08
13.44
11.74
10.21
9.00
8.14
7.58
7.19
6.84
6.39
5.82
5.21
4.66
4.22
3.84
3.29
2.28
0.51
-2.15
-5.58
-9.43
-13.18
-16.27
-18.19
-18.62
-17.51
-15.00
-11.45
-7.30
-2.96
1.23
5.10
8.55
11.55
14.06
16.04
17.47
18.38
18.91
19.23
19.53
19.91
20.39
20.92
21.44
21.93
22.38
22.75
22.90
22.58
21.47
19.31
15.95
11.43
5.96
-0.03
-6.00
-11.33
-15.41
-17.80
-18.38
-17.38
-15.36
-13.00
-10.90
-9.46
-8.75
-8.73
-9.24
-10.20
-11.54
-13.23
-15.13
-17.02
-18.59
-19.53
-19.66
-19.00
-17.77
-16.29
-14.83
-13.54
-12.41
-11.38
-10.48
-9.84
-9.72
-10.38
-11.94
-14.31
-17.19
-20.09
-22.49
-23.87
-23.80
-22.04
-18.62
-13.91
-8.47
-3.01
1.92
5.95
9.03
11.25
12.80
13.82
14.36
14.45
14.16
13.59
12.88
12.18
11.57
11.08
10.66
10.26
9.78
9.17
8.34
7.27
5.93
4.29
2.31
-0.06
-2.85
-6.01
-9.31
-12.38
-14.71
-15.85
-15.51
-13.68
-10.61
-6.75
-2.60
1.41
4.96
7.82
9.85
10.91
10.98
10.09
8.46
6.38
4.20
2.19
0.50
-0.85
-1.93
-2.83
-3.65
-4.42
-5.11
-5.65
-6.03
-6.31
-6.59
-7.01
-7.69
-8.61
-9.59
-10.31
-10.36
-9.34
-7.01
-3.34
1.43
6.88
12.42
17.48
21.61
24.52
26.13
26.50
25.78
24.19
22.05
19.70
17.56
15.93
14.98
14.57
14.38
13.98
12.99
11.29
8.98
6.36
3.73
1.26
-1.13
-3.70
-6.81
-10.75
-15.53
-20.81
-25.86
-29.70
-31.26
-29.79
-25.04
-17.40
-7.83
2.42
12.15
20.38
26.57
30.55
32.53
32.97
32.58
32.13
32.30
33.50
35.67
38.35
40.82
42.35
42.54
41.35
39.14
36.38
33.45
30.49
27.30
23.57
18.97
13.42
7.07
0.34
-6.28
-12.28
-17.27
-21.00
-23.35
-24.30
-23.95
-22.53
-20.29
-17.54
-14.56
-11.58
-8.77
-6.23
-4.01
-2.17
-0.73
0.29
0.87
0.98
0.62
-0.17
-1.22
-2.33
-3.26
-3.83
-4.04
-4.01
-3.98
-4.21
-4.89
-6.12
-7.88
-10.10
-12.62
-15.16
-17.36
-18.86
-19.36
-18.75
-17.07
-14.50
-11.33
-7.83
-4.30
-0.99
1.83
3.90
5.03
5.11
4.23
2.64
0.74
-1.07
-2.46
-3.27
-3.51
-3.34
-2.93
-2.43
-1.94
-1.52
-1.26
-1.28
-1.73
-2.76
-4.41
-6.62
-9.20
-11.90
-14.34
-16.12
-16.77
-15.95
-13.52
-9.68
-4.92
0.14
4.86
8.77
11.64
13.42
14.17
13.99
13.09
11.71
10.20
8.85
7.82
7.04
6.26
5.26
3.89
2.24
0.55
-0.91
-1.99
-2.74
-3.35
-4.11
-5.25
-6.87
-8.93
-11.25
-13.54
-15.47
-16.67
-16.82
-15.70
-13.28
-9.76
-5.55
-1.21
2.71
5.81
7.93
9.17
9.73
9.82
9.52
8.83
7.74
6.36
4.93
3.74
2.98
2.61
2.39
2.00
1.25
0.17
-0.98
-1.91
-2.48
-2.81
-3.23
-4.14
-5.77
-8.12
-10.95
-13.82
-16.26
-17.86
-18.31
-17.46
-15.33
-12.08
-8.03
-3.58
0.84
4.81
8.04
10.33
11.64
12.05
11.73
10.93
9.84
8.69
7.61
6.73
6.12
5.80
5.74
5.84
5.94
5.83
5.37
4.48
3.21
1.69
0.14
-1.28
-2.52
-3.62
-4.81
-6.30
-8.22
-10.48
-12.75
-14.50
-15.18
-14.39
-11.98
-8.17
-3.40
1.70
6.54
10.64
13.74
15.76
16.77
16.93
16.47
15.62
14.67
13.86
13.37
13.26
13.46
13.81
14.14
14.32
14.32
14.20
14.03
13.85
13.58
13.06
12.08
10.51
8.36
5.75
2.91
0.02
-2.72
-5.13
-6.95
-7.85
-7.47
-5.63
-2.39
1.87
6.58
11.17
15.25
18.66
21.40
23.49
24.90
25.56
25.49
24.80
23.82
22.88
22.29
22.14
22.31
22.52
22.45
21.95
21.01
19.86
18.76
17.93
17.43
17.16
16.88
16.29
15.16
13.33
10.88
8.01
5.11
2.60
0.83
-0.03
-0.00
0.69
1.82
3.15
4.53
5.85
7.01
7.84
8.18
7.85
6.84
5.23
3.25
1.18
-0.73
-2.30
-3.48
-4.33
-5.03
-5.74
-6.55
-7.47
-8.39
-9.25
-10.01
-10.80
-11.78
-13.13
-14.96
-17.25
-19.82
-22.38
-24.56
-25.99
-26.31
-25.33
-23.04
-19.65
-15.63
-11.47
-7.69
-4.61
-2.38
-1.02
-0.43
-0.57
-1.35
-2.65
-4.28
-5.94
-7.33
-8.21
-8.52
-8.41
-8.16
-8.10
-8.44
-9.21
-10.32
-11.57
-12.80
-13.97
-15.17
-16.58
-18.43
-20.89
-23.99
-27.65
-31.61
-35.51
-38.91
-41.29
-42.23
-41.43
-38.91
-35.02
-30.44
-25.96
-22.31
-19.95
-18.97
-19.09
-19.87
-20.83
-21.63
-22.10
-22.21
-22.05
-21.68
-21.12
-20.31
-19.16
-17.59
-15.64
-13.49
-11.41
-9.68
-8.41
-7.38
-6.01
-3.49
0.93
7.57
16.09
25.45
34.21
41.12
45.52
47.69
48.67
49.69
51.64
54.60
57.92
60.59
61.83
61.48
60.05
58.38
57.16
56.50
55.78
53.82
49.27
40.95
28.31
11.55
-8.20
-29.04
-48.60
-64.39
-74.48
-78.09
-76.09
-71.01
-66.30
-64.93
-67.91
-73.16
-75.84
-69.84
-50.36
-16.35
28.49
76.76
120.26
153.12
173.85
184.91
190.50
193.70
194.86
191.90
182.26
165.11
142.36
117.95
95.90
78.39
65.08
53.88
42.54
29.97
16.59
3.60
-7.89
-17.66
-26.14
-33.81
-40.48
-45.03
-45.85
-41.68
-32.31
-18.97
-4.07
9.38
18.48
21.08
16.23
4.35
-12.78
-32.42
-51.55
-67.66
-79.31
-86.30
-89.31
-89.33
-87.16
-83.25
-77.88
-71.44
-64.69
-58.66
-54.31
-52.14
-52.00
-53.11
-54.41
-54.95
-54.16
-51.87
-48.15
-43.18
-37.16
-30.38
-23.33
-16.59
-10.71
-5.88
-1.81
2.10
6.44
11.41
16.54
20.89
23.36
23.15
20.13
14.98
8.85
3.00
-1.64
-4.75
-6.66
-8.12
-10.04
-13.08
-17.51
-23.15
-29.45
-35.92
-42.23
-48.50
-55.11
-62.45
-70.56
-78.91
-86.38
-91.63
-93.50
-91.45
-85.64
-76.84
-66.16
-54.87
-44.31
-35.87
-30.91
-30.53
-35.19
-44.33
-56.31
-68.61
-78.45
-83.41
-82.14
-74.58
-62.04
-46.73
-31.21
-17.74
-7.83
-2.02
0.03
-0.78
-3.31
-6.53
-9.64
-12.11
-13.60
-13.89
-12.90
-10.67
-7.32
-3.10
1.74
6.97
12.29
17.37
21.87
25.57
28.56
31.12
33.63
36.24
38.85
41.16
43.00
44.48
45.98
47.83
49.90
51.43
51.31
48.55
42.85
34.78
25.52
16.41
8.47
2.24
-2.20
-5.00
-6.38
-6.61
-6.00
-4.94
-3.89
-3.33
-3.57
-4.75
-6.71
-9.06
-11.28
-12.92
-13.73
-13.82
-13.60
-13.66
-14.58
-16.61
-19.65
-23.20
-26.53
-28.88
-29.74
-28.84
-26.27
-22.40
-17.72
-12.82
-8.22
-4.33
-1.41
0.52
1.61
2.14
2.46
2.80
3.25
3.69
3.87
3.53
2.54
0.97
-0.97
-2.93
-4.69
-6.10
-7.21
-8.19
-9.26
-10.62
-12.43
-14.78
-17.57
-20.51
-23.08
-24.64
-24.63
-22.69
-18.94
-13.89
-8.35
-3.13
1.14
4.27
6.34
7.61
8.30
8.48
8.13
7.20
5.82
4.26
2.88
1.98
1.65
1.78
2.08
2.26
2.13
1.66
0.97
0.20
-0.58
-1.49
-2.79
-4.81
-7.67
-11.20
-14.77
-17.53
-18.67
-17.75
-15.00
-11.13
-7.22
-4.19
-2.56
-2.29
-2.86
-3.49
-3.34
-1.82
1.18
5.17
9.08
11.65
12.01
10.25
7.55
5.80
6.69
10.86
17.42
24.22
28.76
29.29
25.48
18.40
9.99
2.08
-4.13
-8.30
-10.67
-11.60
-11.31
-9.78
-6.98
-3.18
0.97
4.47
6.32
5.89
3.15
-1.23
-6.20
-10.64
-13.77
-15.31
-15.55
-15.12
-14.72
-15.06
-16.73
-20.13
-25.12
-30.62
-34.62
-34.59
-28.56
-16.17
0.84
19.03
34.53
44.47
47.85
45.54
39.48
31.67
23.59
16.17
10.10
6.06
4.73
6.40
10.74
16.87
23.53
29.60
34.37
37.73
39.87
41.06
41.38
40.60
38.36
34.45
29.06
22.84
16.75
11.74
8.47
7.07
7.22
8.32
9.73
10.92
11.61
11.65
11.06
9.93
8.48
7.00
5.85
5.23
5.14
5.35
5.61
5.87
6.35
7.52
9.75
13.17
17.53
22.46
27.68
33.09
38.65
44.10
48.78
51.67
51.79
48.66
42.49
34.23
25.15
16.51
9.29
4.02
0.88
-0.31
-0.09
0.64
0.81
-0.64
-4.43
-10.73
-19.08
-28.55
-37.95
-46.13
-52.25
-55.95
-57.33
-56.84
-55.01
-52.14
-48.28
-43.18
-36.54
-28.26
-18.46
-7.61
3.57
14.03
22.39
27.19
27.30
22.61
14.37
5.01
-2.76
-7.01
-7.37
-4.99
-1.83
0.50
1.42
1.30
1.01
1.14
1.72
2.32
2.51
2.12
1.36
0.51
-0.22
-0.80
-1.36
-1.96
-2.55
-2.93
-2.79
-1.90
-0.17
2.29
5.17
8.00
10.28
11.59
11.76
10.85
9.23
7.36
5.71
4.59
4.09
4.12
4.54
5.15
5.83
6.51
7.14
7.72
8.22
8.59
8.76
8.66
8.18
7.20
5.63
3.46
0.83
-1.98
-4.57
-6.50
-7.40
-7.06
-5.50
-2.95
0.17
3.39
6.28
8.55
10.05
10.76
10.74
10.11
9.02
7.66
6.30
5.15
4.36
3.91
3.64
3.33
2.82
2.10
1.26
0.42
-0.34
-1.07
-1.90
-2.96
-4.34
-6.06
-8.09
-10.34
-12.69
-14.94
-16.78
-17.89
-17.96
-16.87
-14.70
-11.74
-8.35
-4.88
-1.58
1.41
4.00
6.13
7.70
8.61
8.82
8.43
7.66
6.80
6.13
5.83
5.91
6.28
6.74
7.10
7.19
6.92
6.30
5.42
4.41
3.36
2.31
1.14
-0.33
-2.22
-4.50
-6.93
-9.11
-10.61
-11.15
-10.65
-9.23
-7.08
-4.41
-1.39
1.82
5.04
8.03
10.49
12.23
13.11
13.19
12.59
11.54
10.30
9.12
8.22
7.75
7.73
8.00
8.26
8.23
7.69
6.65
5.32
3.97
2.82
1.88
0.99
-0.13
-1.72
-3.83
-6.35
-8.97
-11.31
-12.99
-13.71
-13.25
-11.61
-8.91
-5.46
-1.70
1.91
4.94
7.10
8.30
8.59
8.21
7.44
6.57
5.80
5.25
4.94
4.82
4.82
4.88
4.90
4.81
4.58
4.21
3.76
3.31
2.88
2.41
1.75
0.73
-0.76
-2.74
-5.03
-7.36
-9.39
-10.74
-11.13
-10.42
-8.72
-6.29
-3.52
-0.68
2.07
4.79
7.60
10.45
13.10
15.13
16.11
15.90
14.71
13.06
11.57
10.72
10.64
11.20
12.06
12.91
13.56
13.96
14.15
14.18
14.08
13.82
13.35
12.64
11.66
10.40
8.81
6.91
4.73
2.45
0.38
-1.04
-1.45
-0.61
1.41
4.25
7.37
10.19
12.26
13.34
13.36
12.46
10.86
8.85
6.76
4.87
3.43
2.58
2.35
2.70
3.57
4.91
6.63
8.66
10.89
13.13
15.16
16.78
17.82
18.15
17.69
16.40
14.24
11.20
7.42
3.17
-1.08
-4.81
-7.56
-9.06
-9.26
-8.37
-6.75
-4.76
-2.78
-1.10
0.02
0.42
0.02
-1.12
-2.83
-4.79
-6.66
-8.12
-8.94
-9.03
-8.48
-7.49
-6.28
-5.10
-4.13
-3.48
-3.22
-3.37
-3.91
-4.76
-5.80
-6.87
-7.91
-8.91
-9.96
-11.24
-12.83
-14.64
-16.35
-17.48
-17.57
-16.34
-13.83
-10.43
-6.69
-3.16
-0.19
2.10
3.75
4.79
5.22
5.02
4.21
2.98
1.68
0.69
0.27
0.44
0.95
1.43
1.51
1.09
0.27
-0.66
-1.45
-1.97
-2.30
-2.67
-3.30
-4.35
-5.81
-7.55
-9.37
-11.03
-12.32
-12.99
-12.81
-11.59
-9.31
-6.15
-2.50
1.15
4.33
6.78
8.48
9.66
10.59
11.48
12.33
12.98
13.28
13.23
13.07
13.29
14.30
16.28
19.00
21.85
24.15
25.43
25.65
25.32
25.31
26.55
29.76
35.24
42.73
51.53
60.62
68.91
75.50
79.93
82.33
83.43
84.33
86.12
89.51
94.64
101.01
107.76
113.87
118.38
120.37
118.92
113.08
101.97
85.22
63.22
37.33
9.66
-17.56
-42.50
-64.19
-82.43
-97.36
-109.04
-117.20
-121.23
-120.46
-114.27
-101.99
-82.83
-56.11
-21.99
17.57
58.33
94.48
120.37
132.73
132.08
122.47
109.72
98.85
92.27
89.49
88.15
85.82
81.21
74.36
66.05
56.87
46.90
35.87
23.76
11.25
-0.35
-9.54
-15.30
-17.53
-17.13
-15.60
-14.50
-14.85
-16.89
-20.06
-23.42
-26.13
-27.80
-28.72
-29.60
-31.27
-34.23
-38.39
-43.07
-47.22
-49.88
-50.46
-48.96
-45.92
-42.10
-38.22
-34.75
-31.75
-29.14
-26.84
-24.94
-23.67
-23.29
-23.85
-25.22
-27.04
-28.97
-30.74
-32.21
-33.28
-33.82
-33.61
-32.41
-30.08
-26.59
-22.03
-16.57
-10.43
-3.92
2.48
8.16
12.57
15.39
16.86
17.71
19.07
21.97
27.00
33.88
41.47
47.93
51.07
48.88
39.91
23.74
1.20
-25.63
-53.69
-79.55
-100.27
-114.03
-120.51
-120.71
-116.45
-109.67
-102.03
-94.63
-88.13
-82.89
-79.02
-76.38
-74.58
-73.08
-71.42
-69.44
-67.35
-65.73
-65.13
-65.85
-67.72
-70.25
-72.87
-75.23
-77.29
-79.21
-81.10
-82.76
-83.61
-82.86
-79.88
-74.47
-66.99
-58.18
-48.94
-40.00
-31.79
-24.48
-18.03
-12.41
-7.64
-3.76
-0.76
1.46
3.04
4.12
4.79
5.00
4.63
3.60
1.97
-0.09
-2.32
-4.42
-6.18
-7.50
-8.32
-8.57
-8.10
-6.74
-4.37
-1.12
2.62
6.27
9.25
11.23
12.21
12.47
12.40
12.24
12.01
11.59
10.92
10.10
9.41
9.21
9.65
10.66
11.88
12.92
13.50
13.51
13.08
12.42
11.69
11.01
10.36
9.64
8.68
7.35
5.59
3.52
1.40
-0.39
-1.45
-1.48
-0.36
1.86
5.03
8.89
13.14
17.41
21.26
24.27
26.14
26.79
26.38
25.24
23.77
22.32
21.12
20.22
19.56
18.93
18.13
16.96
15.34
13.32
11.03
8.60
6.12
3.60
0.97
-1.82
-4.88
-8.29
-12.13
-16.41
-21.00
-25.56
-29.63
-32.67
-34.30
-34.36
-32.99
-30.60
-27.70
-24.82
-22.42
-20.85
-20.31
-20.85
-22.36
-24.65
-27.48
-30.66
-34.00
-37.43
-40.90
-44.40
-47.90
-51.32
-54.37
-56.65
-57.72
-57.36
-55.74
-53.56
-51.84
-51.63
-53.60
-57.73
-63.33
-69.26
-74.28
-77.49
