1574754203.00
64.000000
-0.00
-0.00
-0.00
-0.00
-0.00
-0.00
-0.00
-0.00
-0.00
-0.00
0.00
0.01
0.01
-0.00
-0.03
-0.05
-0.05
0.00
0.13
0.36
0.66
1.01
1.37
1.72
2.06
2.40
2.79
3.24
3.80
4.42
5.06
5.66
6.20
6.68
7.15
7.68
8.31
9.14
10.09
11.04
11.88
12.56
13.14
13.76
14.65
15.96
17.91
20.32
22.90
25.38
27.58
29.57
31.68
34.32
37.81
42.54
48.15
54.10
59.83
64.97
69.58
74.14
79.34
85.71
93.76
103.00
112.62
121.73
129.77
136.75
143.30
150.75
157.77
166.64
177.95
191.79
206.97
220.57
228.25
225.36
208.53
176.87
132.76
80.05
23.07
-34.94
-92.44
-149.16
-205.23
-260.37
-313.74
-363.87
-409.83
-450.91
-486.50
-515.74
-537.23
-549.22
-549.96
-538.37
-514.21
-478.67
-433.88
-382.45
-327.02
-269.84
-212.63
-156.66
-102.95
-52.37
-5.90
35.58
71.43
101.35
125.50
144.38
158.69
169.15
176.37
180.75
182.57
182.07
179.51
175.23
169.65
163.18
156.15
148.81
141.30
133.69
126.02
118.33
110.69
103.16
95.80
88.68
81.83
75.25
68.95
62.95
57.25
51.86
46.78
42.03
37.59
33.45
29.61
26.07
22.81
19.83
17.11
14.67
12.48
10.54
8.83
7.35
6.07
4.97
4.05
3.27
2.62
2.09
1.65
1.30
1.01
0.79
0.61
0.47
0.37
0.28
0.22
0.18
0.15
0.13
0.12
0.12
0.13
0.15
0.17
0.20
0.23
0.27
0.31
0.36
0.40
0.45
0.50
0.55
0.60
0.65
0.70
0.76
0.82
0.89
0.97
1.05
1.14
1.24
1.36
1.49
1.64
1.81
1.99
2.20
2.43
2.68
2.96
3.27
3.61
3.98
4.39
4.83
5.31
5.82
6.38
6.97
7.60
8.28
9.00
9.77
10.59
11.44
12.34
13.28
14.28
15.34
16.48
17.66
18.90
20.19
21.46
22.68
23.75
24.57
25.00
24.95
24.27
22.90
20.78
17.92
14.39
10.26
5.73
1.01
-3.69
-8.13
-12.12
-15.46
-18.03
-19.76
-20.63
-20.67
-19.99
-18.70
-16.93
-14.83
-12.55
-10.23
-7.99
-5.93
-4.06
-2.40
-0.92
0.46
1.81
3.20
4.64
6.12
7.64
9.22
10.80
12.41
14.09
15.91
17.89
20.02
22.24
24.55
27.05
29.61
32.28
35.22
38.53
42.22
46.14
50.07
53.84
57.49
60.82
64.01
67.42
71.36
75.80
80.43
84.68
88.04
90.42
91.47
91.50
91.07
90.50
89.50
86.95
80.98
68.99
53.30
34.77
14.65
-5.69
-25.14
-43.23
-60.18
-76.84
-94.30
-113.78
-136.99
-164.63
-195.68
-226.86
-252.82
-267.52
-266.32
-247.97
-215.37
-175.22
-135.10
-101.11
-76.29
-60.54
-51.75
-47.31
-45.08
-43.62
-42.18
-39.94
-35.98
-29.62
-20.94
-10.97
-1.46
5.68
9.17
8.62
4.73
-1.29
-8.35
-16.00
-24.19
-32.71
-40.49
-45.41
-44.94
-37.10
-21.48
0.39
25.37
49.74
70.20
84.57
92.02
92.83
88.17
79.71
69.39
59.15
50.54
44.54
41.31
40.33
40.55
40.81
40.04
37.53
32.99
26.52
18.39
8.84
-2.13
-14.61
-28.46
-42.79
-55.79
-64.91
-67.55
-62.17
-49.01
-30.27
-9.52
9.45
23.73
31.89
34.07
31.47
25.76
18.60
11.41
5.26
0.81
-1.72
-2.54
-2.21
-1.49
-1.10
-1.51
-3.00
-5.68
-9.70
-15.30
-22.73
-32.10
-42.96
-54.04
-63.25
-68.04
-66.17
-56.54
-39.82
-18.40
4.26
24.62
39.96
48.95
51.58
48.84
42.26
33.53
24.20
15.61
8.70
3.91
1.21
0.08
-0.24
-0.56
-1.61
-3.93
-7.90
-13.86
-22.05
-32.55
-44.85
-57.64
-68.70
-75.17
-74.37
-64.74
-46.53
-21.99
5.19
30.90
51.73
65.74
72.56
73.03
68.60
60.86
51.30
41.31
32.25
25.30
21.20
20.01
20.97
22.75
23.92
23.35
20.56
15.49
8.16
-1.42
-13.31
-27.02
-41.14
-53.21
-60.15
-59.27
-49.37
-31.39
-8.28
15.85
36.96
52.18
60.27
61.48
57.04
48.66
38.18
27.44
18.15
11.65
8.54
8.52
10.44
12.67
13.73
12.71
9.40
3.99
-3.22
-12.25
-23.20
-35.87
-49.20
-61.03
-68.48
-68.80
-60.43
-43.73
-21.03
3.97
27.27
45.60
57.05
61.21
58.86
51.65
41.55
30.69
20.89
13.46
9.04
7.45
7.89
9.23
10.30
10.21
8.47
4.91
-0.52
-7.86
-17.27
-28.70
-41.48
-54.01
-63.74
-67.78
-63.77
-50.93
-30.48
-5.50
19.99
42.07
57.99
66.53
67.99
63.70
55.57
45.67
35.94
27.95
22.71
20.51
20.94
23.00
25.42
27.05
27.00
24.88
20.62
14.31
5.98
-4.41
-16.82
-30.68
-44.46
-55.71
-61.42
-59.11
-47.77
-28.56
-4.62
19.90
41.07
56.31
64.72
66.94
64.40
58.73
51.33
43.29
35.41
28.34
22.45
17.82
14.19
11.03
7.74
3.86
-0.74
-6.00
-11.88
-18.67
-27.01
-37.52
-50.16
-63.69
-75.47
-82.21
-81.11
-71.10
-53.46
-31.53
-9.54
8.75
21.05
26.83
26.90
22.81
16.15
8.36
0.68
-5.81
-10.13
-11.55
-9.72
-4.84
2.41
10.92
19.34
26.30
30.55
31.08
27.20
18.78
6.48
-7.92
-21.62
-31.23
-33.83
-27.95
-14.41
3.82
22.54
37.53
45.85
46.39
39.80
27.98
13.47
-1.00
-12.91
-20.34
-22.34
-19.23
-12.58
-4.70
2.08
6.10
6.75
4.35
-0.40
-6.81
-14.55
-23.55
-33.70
-44.29
-53.86
-60.22
-61.01
-54.49
-40.27
-19.74
4.13
27.54
46.89
59.63
64.75
62.75
55.24
44.35
32.28
20.92
11.66
5.21
1.58
0.16
-0.11
-0.47
-1.98
-5.25
-10.42
-17.25
-25.47
-35.11
-46.42
-59.44
-73.42
-86.37
-95.34
-97.15
-89.83
-73.60
-51.10
-26.61
-4.67
11.31
19.92
21.63
18.19
11.72
4.08
-3.35
-9.65
-14.20
-16.59
-16.70
-14.87
-11.87
-8.81
-6.81
-6.75
-9.01
-13.67
-20.63
-29.84
-41.26
-54.37
-67.78
-78.98
-84.70
-81.97
-69.33
-47.82
-20.89
6.60
29.95
46.07
54.10
55.10
51.17
44.61
37.25
30.37
24.77
20.83
18.54
17.47
16.85
15.82
13.71
10.29
5.76
0.46
-5.28
-11.46
-18.47
-27.01
-37.60
-50.08
-62.96
-73.46
-78.06
-73.83
-59.68
-37.14
-10.05
16.66
38.63
53.32
60.40
61.33
58.31
53.52
48.60
44.62
42.19
41.45
42.05
43.16
43.72
42.87
40.33
36.60
32.74
29.83
28.41
28.23
28.22
26.87
22.83
15.43
5.16
-6.22
-15.80
-20.32
-17.13
-5.24
14.13
37.81
61.82
82.81
99.06
110.70
118.94
124.98
129.17
130.97
129.54
124.54
116.58
107.01
97.40
88.79
81.46
74.98
68.64
61.93
54.72
47.24
39.81
32.47
24.85
16.21
5.79
-6.84
-21.55
-37.69
-54.19
-69.83
-83.10
-92.34
-95.74
-91.79
-79.88
-60.91
-37.29
-12.51
9.85
27.08
37.80
42.02
40.65
35.09
26.94
17.89
9.59
3.48
0.37
0.18
1.94
4.08
5.00
3.64
-0.22
-5.99
-12.62
-19.04
-24.59
-29.20
-33.44
-38.30
-44.80
-53.54
-64.30
-75.68
-85.25
-90.16
-87.97
-77.54
-59.61
-36.66
-12.24
9.94
26.92
36.94
39.55
35.45
26.27
14.25
2.00
-8.08
-14.36
-16.39
-15.11
-12.37
-10.27
-10.28
-12.81
-17.28
-22.61
-27.78
-32.37
-36.73
-41.85
-49.01
-59.36
-73.12
-89.04
-104.15
-114.21
-115.06
-104.09
-81.57
-50.80
-17.16
13.64
37.17
51.29
56.07
53.08
44.62
33.16
21.19
11.05
4.83
4.00
9.02
19.27
33.17
48.67
63.78
77.03
87.67
95.61
101.01
103.85
103.67
99.66
91.21
78.69
64.01
50.43
41.74
40.79
48.29
62.38
79.20
94.26
104.08
107.15
104.05
96.59
86.66
75.53
63.56
50.69
37.03
22.96
9.04
-4.39
-17.45
-30.54
-43.91
-57.20
-69.30
-78.93
-85.21
-88.26
-89.24
-89.72
-90.87
-92.66
-93.64
-91.44
-83.61
-68.76
-47.33
-21.69
4.41
26.91
42.60
49.95
49.37
42.87
33.32
23.65
16.04
11.57
10.16
10.90
12.58
13.94
14.00
11.90
6.86
-1.63
-13.60
-28.42
-44.88
-61.49
-76.80
-89.66
-99.20
-104.55
-104.74
-99.03
-87.23
-70.20
-49.81
-28.49
-8.57
8.23
20.91
29.04
32.54
31.53
26.53
18.54
8.98
-0.48
-8.41
-13.83
-16.45
-16.70
-15.46
-13.91
-13.17
-14.16
-17.36
-22.85
-30.59
-40.32
-51.58
-63.29
-73.54
-79.69
-79.09
-70.08
-52.93
-30.00
-5.10
17.71
35.36
46.43
51.04
50.32
45.75
38.80
30.86
23.18
16.83
12.53
10.50
10.42
11.56
13.11
14.35
14.84
14.34
12.60
9.35
4.04
-3.89
-14.69
-27.80
-41.47
-52.86
-58.68
-56.29
-44.77
-25.41
-1.55
22.55
42.93
57.01
64.08
64.89
61.16
54.75
47.26
39.87
33.32
28.11
24.39
22.13
20.99
20.52
20.22
19.68
18.60
16.84
14.22
10.50
5.25
-2.02
-11.63
-23.27
-35.67
-46.69
-53.68
-54.41
-47.97
-35.20
-18.63
-1.67
12.61
22.29
27.03
27.76
25.95
22.98
19.81
16.97
14.78
13.56
13.53
14.59
16.17
17.23
16.57
13.38
7.64
0.02
-8.41
-16.85
-25.17
-33.84
-43.49
-54.15
-64.68
-72.86
-76.00
-72.13
-61.08
-44.76
-26.68
-10.75
0.12
4.90
4.49
1.00
-3.26
-6.64
-8.52
-9.07
-8.83
-8.31
-7.93
-7.99
-8.87
-10.99
-14.70
-20.25
-27.61
-36.60
-46.92
-58.13
-69.64
-80.50
-89.40
-94.66
-94.62
-88.09
-74.72
-55.36
-31.90
-6.92
16.85
37.13
52.27
61.43
64.53
62.15
55.64
47.02
38.73
32.91
30.80
32.22
35.69
39.14
40.81
39.99
36.91
32.23
26.29
18.98
10.19
0.50
-8.28
-13.57
-12.87
-4.99
9.38
27.79
46.96
63.85
76.42
83.87
86.35
84.53
79.32
71.69
62.80
53.87
46.02
39.94
35.63
32.45
29.37
25.45
20.32
14.27
8.04
2.43
-2.10
-5.47
-7.72
-8.81
-8.36
-5.93
-1.25
5.57
13.93
23.01
31.90
39.89
46.42
51.00
53.30
53.13
50.64
46.29
40.77
34.80
28.99
23.74
19.32
15.80
13.02
10.67
8.32
5.54
1.90
-3.29
-10.98
-22.41
-38.44
-58.90
-82.05
-104.68
-123.15
-134.56
-137.80
-133.80
-125.07
-114.69
-105.46
-99.44
-97.72
-100.45
-106.76
-114.85
-122.34
-126.93
-127.23
-123.40
-117.12
-111.07
-107.65
-107.77
-110.42
-112.95
-112.62
-107.93
-99.43
-89.36
-79.88
-71.34
-61.42
-45.91
-20.80
15.71
62.09
114.24
167.06
215.98
257.41
288.40
306.20
308.69
295.59
269.60
236.38
202.84
174.48
153.31
137.46
122.86
105.78
84.85
61.23
37.36
15.13
-5.25
-25.09
-46.02
-68.60
-91.45
-111.53
-125.02
-128.86
-121.89
-105.53
-83.37
-60.26
-40.72
-27.89
-22.96
-25.44
-33.94
-46.83
-62.64
-80.03
-97.62
-114.09
-128.37
-139.95
-148.80
-155.05
-158.69
-159.60
-157.77
-153.87
-149.36
-146.12
-145.90
-149.51
-156.61
-165.95
-175.68
-183.75
-188.07
-186.61
-177.74
-160.64
-136.04
-106.27
-74.83
-45.41
-20.91
-2.86
8.56
14.15
15.16
13.20
10.15
8.05
8.84
13.73
22.79
34.72
47.32
58.12
65.12
67.14
64.01
56.35
45.42
33.07
21.59
13.62
11.64
17.40
31.23
51.63
75.51
98.85
117.92
130.24
135.19
133.86
128.37
120.92
113.11
105.57
98.17
90.58
82.66
74.76
67.53
61.61
57.20
53.93
50.87
46.80
40.52
31.04
17.87
1.33
-17.15
-34.76
-47.45
-50.94
-42.32
-21.51
8.17
40.79
69.84
90.39
100.51
101.32
95.79
87.16
77.87
69.17
61.59
55.41
50.94
48.25
46.92
45.87
43.64
38.90
30.96
19.88
6.29
-8.92
-25.05
-41.46
-57.26
-70.87
-79.88
-81.65
-74.17
-57.11
-32.34
-3.66
24.29
47.39
63.07
70.66
71.19
66.62
59.26
51.18
44.03
38.87
36.11
35.57
36.46
37.65
37.99
36.62
33.34
28.44
22.61
16.38
9.73
1.96
-7.97
-20.68
-35.69
-50.84
-62.66
-67.36
-62.41
-47.53
-25.06
0.90
25.81
46.13
59.91
66.77
67.29
62.54
53.81
42.77
31.54
22.32
16.86
15.73
18.03
21.67
24.27
24.05
20.46
14.17
6.61
-0.75
-7.06
-12.23
-16.91
-22.13
-29.01
-38.52
-50.93
-65.57
-80.38
-92.06
-96.82
-91.64
-75.61
-50.54
-20.56
9.23
34.35
52.18
62.19
65.38
63.41
57.89
50.31
42.10
34.73
29.62
27.55
28.35
30.77
32.93
32.94
29.65
22.94
13.71
3.42
-6.52
-15.21
-22.59
-29.33
-36.65
-45.79
-57.57
-71.79
-86.95
-100.36
-108.58
-108.33
-97.58
-76.27
-46.55
-12.37
21.52
50.72
72.08
84.20
87.49
83.77
75.76
66.45
58.44
53.34
51.45
51.66
51.99
50.27
45.01
35.93
24.20
12.02
1.88
-4.38
-6.33
-5.35
-4.15
-5.91
-12.91
-25.60
-42.05
-58.38
-69.97
-72.85
-64.85
-46.25
-19.49
11.47
42.12
68.30
86.90
96.17
96.03
87.97
74.66
59.48
45.87
36.41
32.34
33.25
37.36
42.20
45.54
46.01
43.47
38.75
33.01
27.18
21.57
15.84
9.27
1.03
-9.53
-22.66
-37.73
-53.11
-66.02
-73.17
-71.83
-60.88
-41.61
-17.45
7.02
27.52
41.25
47.28
46.32
39.92
29.93
18.21
6.51
-3.49
-10.56
-14.23
-15.07
-14.45
-14.10
-15.40
-18.90
-24.32
-30.81
-37.43
-43.64
-49.46
-55.42
-62.39
-71.17
-82.01
-94.17
-105.70
-113.72
-115.19
-107.91
-91.64
-68.25
-41.33
-15.08
6.88
22.33
30.68
32.56
29.47
23.26
15.93
9.41
5.29
4.44
6.77
11.27
16.39
20.45
22.29
21.43
18.13
13.09
7.15
1.02
-5.02
-11.19
-18.16
-26.68
-36.96
-48.11
-57.90
-63.24
-61.25
-50.49
-31.78
-8.14
16.12
36.85
51.28
58.41
58.98
54.67
47.54
39.52
32.33
27.33
25.20
25.78
28.01
30.20
30.65
28.39
23.44
16.83
10.06
4.44
0.67
-1.47
-3.08
-5.82
-11.30
-20.28
-32.10
-44.35
-53.45
-55.75
-49.06
-33.58
-12.04
11.19
31.70
46.29
53.63
54.07
48.99
40.13
29.26
18.14
8.40
1.31
-2.53
-3.43
-2.46
-1.04
-0.42
-1.19
-3.30
-6.33
-9.85
-13.89
-18.97
-25.96
-35.48
-47.38
-60.26
-71.51
-77.96
-76.80
-66.78
-48.81
-25.88
-2.11
18.41
32.79
39.78
39.74
34.13
24.93
14.28
4.10
-4.06
-9.25
-11.27
-10.67
-8.48
-5.89
-3.86
-3.00
-3.55
-5.54
-8.94
-13.86
-20.48
-28.94
-39.05
-49.87
-59.42
-64.81
-62.92
-51.68
-31.18
-4.13
24.68
49.92
67.40
75.28
74.19
66.51
55.17
42.65
30.64
20.13
11.73
5.86
2.71
2.01
2.94
4.29
4.69
3.14
-0.80
-7.03
-15.06
-24.57
-35.33
-47.07
-58.89
-68.94
-74.50
-72.97
-62.96
-45.20
-22.57
0.76
20.67
34.43
41.10
41.38
36.80
29.04
19.54
9.58
0.41
-6.77
-11.00
-11.99
-10.26
-7.07
-4.06
-2.69
-4.02
-8.63
-16.69
-28.05
-41.88
-56.44
-68.97
-76.17
-75.10
-64.44
-45.10
-20.18
5.99
29.16
46.25
55.94
58.48
55.20
47.92
38.54
28.87
20.53
14.76
12.30
13.08
16.34
20.78
25.01
27.87
28.69
27.23
23.43
17.21
8.52
-2.25
-13.98
-24.60
-31.48
-32.27
-25.85
-12.99
3.83
21.20
35.83
45.45
49.18
47.30
40.81
31.01
19.30
7.10
-4.19
-13.38
-19.74
-23.18
-24.24
-23.87
-23.10
-22.77
-23.45
-25.60
-29.58
-35.62
-43.57
-52.55
-60.89
-66.33
-66.66
-60.40
-47.48
-29.34
-8.61
11.54
28.16
39.09
43.31
40.93
33.11
21.92
9.92
-0.29
-6.59
-7.92
-4.46
2.45
10.72
18.00
22.20
21.71
15.56
3.78
-12.36
-30.21
-46.03
-55.77
-56.43
-47.06
-29.17
-6.26
17.35
37.80
52.62
60.94
63.20
60.52
54.29
45.91
36.81
28.40
21.86
18.03
17.11
18.64
21.67
24.98
27.30
27.62
25.17
19.43
10.20
-2.24
-16.83
-31.46
-43.14
-48.60
-45.43
-33.03
-13.19
10.41
33.19
51.22
62.22
65.91
63.52
57.02
48.28
38.83
29.80
22.24
17.02
14.73
15.35
18.12
21.64
24.37
25.00
22.98
18.26
11.13
1.83
-9.39
-21.97
-34.56
-44.79
-49.83
-47.25
-36.21
-18.02
4.13
26.08
44.15
56.01
61.08
60.19
54.93
47.05
38.17
29.70
22.74
18.09
15.98
16.11
17.58
19.26
20.06
19.21
16.32
11.33
4.23
-4.95
-16.02
-28.31
-40.26
-49.47
-53.27
-49.56
-37.84
-19.59
1.99
22.99
40.00
50.97
55.50
54.41
49.23
41.56
32.91
24.64
17.96
13.68
12.06
12.55
13.99
15.00
14.41
11.74
7.16
1.20
-5.68
-13.43
-22.35
-32.61
-43.63
-53.77
-60.41
-60.90
-53.58
-38.71
-18.52
3.38
23.20
38.03
46.41
48.31
44.71
37.02
26.88
15.99
6.02
-1.48
-5.51
-5.88
-3.23
1.02
5.25
8.03
8.37
5.76
-0.02
-8.95
-20.69
-34.24
-47.72
-58.40
-63.43
-60.77
-50.17
-33.52
-14.24
3.76
17.40
25.21
27.37
25.16
20.22
14.04
7.77
2.33
-1.50
-3.28
-3.01
-1.28
0.90
2.38
2.35
0.40
-3.47
-9.20
-16.77
-26.05
-36.53
-46.85
-54.85
-58.03
-54.50
-43.74
-27.01
-7.04
12.88
29.88
42.16
49.17
51.28
49.27
44.07
36.63
28.07
19.76
13.10
9.13
8.22
9.83
12.66
15.14
15.89
14.11
9.63
2.69
-6.22
-16.46
-27.05
-36.39
-42.44
-43.14
-37.21
-24.88
-8.05
10.20
26.52
38.35
44.38
44.64
40.02
31.80
21.31
9.97
-0.74
-9.41
-14.98
-17.05
-16.12
-13.48
-10.80
-9.63
-11.05
-15.47
-22.76
-32.31
-43.07
-53.53
-61.71
-65.39
-62.79
-53.22
-37.65
-18.61
0.48
16.46
27.37
32.89
34.04
32.44
29.44
25.81
21.74
17.34
12.99
9.47
7.74
8.46
11.62
16.32
20.94
23.54
22.57
17.32
8.39
-2.37
-12.15
-17.80
-16.73
-7.79
8.12
28.08
47.88
63.29
71.40
71.72
66.12
57.77
49.35
41.83
34.49
25.91
15.48
4.04
-6.28
-13.33
-16.59
-17.73
-19.68
-24.85
-33.97
-46.24
-60.74
-76.89
-94.30
-111.73
-126.09
-132.49
-125.90
-104.02
-69.48
-29.86
5.83
31.30
45.29
51.26
54.66
60.09
69.32
83.58
101.02
118.10
132.40
144.21
155.38
165.74
172.81
173.54
165.98
149.83
127.57
103.56
82.39
67.21
58.78
55.68
54.91
53.00
46.98
35.62
19.71
1.04
-18.86
-39.43
-60.60
-82.13
-103.13
-122.18
-137.70
-148.75
-155.67
-160.12
-164.36
-170.19
-178.23
-188.06
-198.82
-209.77
-220.72
-231.68
-242.40
-251.60
-256.66
-254.38
-242.29
-219.88
-188.75
-152.17
-114.20
-79.28
-51.93
-36.17
-34.12
-44.35
-61.19
-76.20
-81.37
-72.35
-50.39
-21.50
6.36
26.52
35.87
35.31
28.93
22.15
19.63
23.65
33.42
45.74
57.08
65.83
73.61
84.28
101.19
124.64
150.72
172.98
185.58
185.87
175.18
157.48
137.38
118.40
102.41
89.96
80.88
74.62
70.42
67.46
64.83
61.31
55.30
44.98
28.94
7.07
-18.78
-44.87
-66.65
-80.36
-84.40
-79.86
-69.84
-58.16
-47.91
-40.64
-36.48
-34.72
-34.74
-36.52
-40.56
-47.33
-56.55
-66.93
-76.30
-82.45
-84.15
-81.76
-77.18
-73.09
-71.86
-74.75
-81.56
-90.88
-100.50
-107.87
-110.42
-106.06
-93.61
-73.34
-47.17
-18.30
9.63
33.66
52.29
65.57
74.53
80.42
84.07
85.68
85.16
82.45
77.97
72.56
67.22
62.67
58.98
55.56
51.43
45.69
37.80
27.75
15.77
2.25
-12.17
-26.41
-38.50
-45.80
-45.63
-36.45
-18.76
4.60
29.34
51.17
67.23
76.73
80.68
80.83
78.64
74.81
69.46
62.75
55.32
48.24
42.59
38.93
36.99
35.87
34.37
31.51
26.67
19.54
9.89
-2.43
-17.24
-33.51
-49.02
-60.60
-64.95
-59.84
-45.12
-22.94
2.98
28.61
50.92
68.46
81.23
89.87
94.94
96.64
95.00
90.43
83.93
77.00
71.09
67.10
64.99
63.94
62.80
60.61
57.07
52.50
47.53
42.50
37.07
30.08
20.09
6.20
-11.13
-29.84
-46.81
-59.08
-64.85
-63.88
-57.02
-45.58
-31.06
-15.55
-2.29
4.38
0.23
-17.07
-46.56
-83.83
-122.63
-156.83
-182.14
-196.50
-199.60
-192.12
-175.41
-151.49
-123.22
-93.69
-65.44
-39.66
-16.10
6.26
28.23
49.80
70.07
87.81
102.21
113.38
122.58
131.78
143.00
157.44
174.95
193.84
211.54
225.45
233.85
236.17
232.70
224.17
211.11
193.78
172.48
147.85
121.07
93.76
67.54
43.71
22.92
5.26
-9.65
-22.26
-32.90
-41.65
-48.48
-53.61
-57.76
-62.11
-67.97
-76.12
-86.15
-96.29
-103.81
-106.07
-101.64
-90.96
-76.15
-60.27
-46.04
-35.02
-27.32
-22.03
-18.02
-14.64
-11.99
-10.48
-10.41
-11.52
-12.79
-12.92
-10.70
-5.54
2.37
12.25
22.79
32.62
40.47
45.37
46.79
44.72
39.62
32.28
23.61
14.35
4.74
-5.41
-16.65
-29.37
-43.31
-57.05
-68.10
-73.53
-70.89
-59.46
-40.54
-17.17
6.95
28.61
45.81
57.81
64.70
66.93
65.12
60.10
53.11
45.70
39.44
35.61
34.63
36.09
38.68
40.60
40.18
36.42
29.45
20.53
11.61
4.52
0.20
-1.70
-2.69
-4.65
-9.18
-17.05
-27.86
-40.22
-51.87
-60.12
-62.27
-56.46
-42.37
-21.64
2.26
25.13
43.27
54.57
59.04
58.11
53.86
47.98
41.42
34.68
28.14
22.51
18.59
16.85
17.12
18.35
19.06
17.80
13.74
7.13
-0.89
-8.65
-14.77
-18.77
-21.35
-24.14
-28.79
-36.39
-46.84
-58.98
-70.91
-80.47
-85.76
-85.38
-78.86
-66.79
-50.72
-32.96
-15.80
-1.01
10.55
18.83
24.24
27.35
28.69
28.80
28.33
27.76
27.53
27.78
28.32
28.85
28.85
27.67
24.45
18.40
9.22
-2.47
-15.01
-26.24
-34.40
-39.08
-41.57
-44.51
-50.69
-61.67
-76.98
-94.00
-109.05
-118.81
-121.50
-117.41
-108.54
-97.66
-87.31
-79.10
-73.89
-72.02
-73.76
-79.02
-86.87
-94.98
-99.89
-98.27
-88.57
-72.22
-53.39
-37.32
-28.01
-26.44
-30.64
-37.01
-42.50
-45.98
-48.22
-51.01
-55.74
-62.96
-72.44
-83.62
-95.92
-108.42
-119.65
-127.38
-129.07
-122.60
-106.81
-81.77
-48.58
-9.12
34.08
78.01
119.38
155.17
183.16
202.44
213.39
217.49
216.72
213.04
208.04
202.59
196.73
189.69
180.18
167.08
150.17
130.71
111.42
95.71
86.38
84.49
88.77
96.02
102.01
102.66
94.82
76.60
47.79
10.06
-32.66
-74.78
-110.53
-136.27
-152.18
-162.45
-173.39
-190.16
-214.14
-241.90
-266.71
-281.54
-281.65
-265.86
-235.59
-193.27
-141.07
-81.08
-16.33
48.32
106.49
152.02
181.19
194.22
195.23
190.54
186.01
184.89
186.90
188.93
186.74
176.69
157.13
128.85
94.93
59.95
28.90
6.02
-6.38
-8.45
-2.68
7.04
16.74
23.57
26.46
25.83
23.01
19.34
15.79
12.73
10.25
8.34
7.03
6.22
5.67
4.91
3.42
0.87
-2.87
-7.54
-12.97
-18.88
-24.95
-30.99
-37.19
-44.15
-52.54
-62.74
-74.39
-86.53
-97.58
-105.74
-109.78
-109.54
-106.01
-100.58
-94.36
-87.69
-80.86
-74.06
-67.49
-61.82
-58.05
-56.99
-58.67
-62.13
-66.12
-71.39
-78.71
-87.69
-96.39
-102.12
-102.19
-94.77
-79.68
-58.88
-39.62
-28.54
-28.48
-37.74
-52.25
-67.38
-78.86
-83.51
-79.94
-74.06
-71.39
-73.61
-78.67
-84.65
-91.52
-100.75
-114.25
-133.81
-167.43
-219.31
-285.99
-357.61
-424.25
-479.44
-520.70
-549.12
-525.00
-434.49
-298.94
-160.44
-49.14
27.72
76.88
108.34
129.51
144.53
148.63
139.18
118.27
95.29
77.49
67.19
63.40
63.53
65.26
62.04
50.58
33.17
16.33
6.04
2.19
3.48
8.01
14.24
17.97
16.97
12.31
7.47
5.17
6.09
9.99
15.93
23.02
28.96
32.37
33.44
33.67
34.23
35.47
37.51
40.21
43.37
46.25
48.37
49.80
51.14
52.95
55.56
59.40
64.69
71.53
79.81
89.27
99.51
110.10
120.69
131.07
141.50
152.65
165.51
180.90
198.82
217.93
235.58
248.32
253.01
247.82
232.70
209.35
180.74
150.55
122.67
100.73
87.51
84.28
90.39
103.17
118.59
132.32
140.96
142.73
137.61
126.87
112.50
96.66
81.18
67.42
56.17
47.62
41.47
37.11
33.77
30.63
27.07
22.62
17.06
10.27
2.02
-8.14
-20.68
-35.67
-52.10
-67.55
-78.50
-81.31
-73.56
-55.19
-28.71
1.49
30.52
54.44
71.01
79.89
82.05
79.12
72.77
64.48
55.50
46.87
39.45
33.76
29.86
27.31
25.23
22.56
18.41
12.26
3.98
-6.42
-19.03
-33.97
-51.00
-68.86
-84.97
-95.82
-97.99
-89.57
-71.13
-45.70
-17.77
8.15
28.82
42.81
50.25
52.17
49.88
44.69
37.95
30.99
25.12
21.29
19.87
20.50
22.14
23.45
23.19
20.57
15.40
7.96
-1.35
-12.32
-24.97
-39.22
-54.26
-68.08
-77.62
-79.65
-71.99
-54.63
-30.03
-2.47
23.37
43.74
56.70
62.19
61.52
56.62
49.50
41.86
35.08
30.03
27.07
25.95
25.90
25.87
24.90
22.34
18.14
12.69
6.56
0.05
-7.07
-15.58
-26.27
-39.19
-53.03
-65.07
-71.80
-70.20
-58.92
-38.99
-13.59
12.94
36.39
53.77
63.81
66.89
64.50
58.63
51.27
44.09
38.22
34.20
32.03
31.23
31.12
30.91
29.95
27.78
24.26
19.50
13.83
7.51
0.58
-7.20
-16.13
-26.07
-35.93
-43.50
-45.94
-40.80
-27.14
-6.21
18.78
43.65
64.61
79.27
86.98
88.54
85.58
79.93
73.26
66.98
62.14
59.25
58.18
58.25
58.30
57.24
54.28
49.25
42.53
34.73
26.37
17.55
7.74
-4.07
-18.86
-36.97
-57.40
-77.69
-94.29
-103.71
-103.77
-94.53
-78.49
-59.71
-42.40
-29.57
-22.27
-19.72
-20.06
-21.22
-21.44
-19.36
-13.91
-4.29
9.84
28.09
49.14
70.89
90.92
107.11
118.16
123.79
124.52
121.12
114.07
103.42
89.14
71.90
53.71
37.93
28.44
28.26
38.44
57.65
82.97
111.12
139.50
166.18
189.38
206.63
215.08
212.69
199.89
180.44
160.45
145.92
139.93
141.22
144.81
144.66
136.63
120.29
98.50
75.42
54.20
35.53
18.09
-0.14
-20.25
-41.75
-62.99
-82.12
-98.08
-110.83
-121.07
-129.50
-136.43
-141.73
-145.18
-147.02
-148.07
-149.57
-152.54
-157.27
-163.00
-168.19
-171.20
-171.05
-167.97
-163.24
-158.70
-155.99
-155.93
-158.43
-162.75
-168.05
-173.76
-179.83
-186.49
-193.95
-202.08
-210.10
-216.71
-220.30
-219.24
-212.37
-199.54
-181.98
-162.49
-145.21
-134.72
-134.87
-147.45
-171.51
-203.27
-236.89
-266.06
-285.49
-292.27
-286.20
-269.42
-245.13
-216.58
-186.23
-155.55
-125.28
-95.58
-66.13
-35.74
-2.47
35.62
78.86
124.67
167.31
199.43
214.82
211.20
191.48
162.73
133.70
111.79
100.91
100.87
108.19
117.81
124.66
125.06
117.34
102.05
81.47
58.87
37.54
20.04
7.85
1.49
0.53
3.82
9.51
15.19
18.22
16.37
8.36
-5.68
-24.32
-45.22
-65.69
-83.23
-95.82
-102.04
-101.16
-93.13
-78.83
-60.09
-39.48
-19.91
-3.80
7.46
13.82
16.39
16.88
16.97
17.85
20.08
23.72
28.51
34.04
39.86
45.43
50.22
53.70
55.49
55.38
53.35
49.40
43.55
35.92
27.06
18.27
11.65
9.79
14.92
28.01
48.19
72.68
97.52
118.59
132.82
138.92
137.52
130.96
122.35
114.84
110.66
110.55
113.55
117.41
119.45
117.59
111.28
101.80
91.91
84.76
82.76
86.47
94.25
102.71
107.82
106.34
97.03
81.48
63.99
50.72
47.69
58.76
83.83
118.34
154.55
184.07
200.83
202.98
192.92
175.62
156.20
138.00
122.10
108.01
94.84
82.04
69.38
56.34
41.71
23.82
1.30
-26.08
-56.99
-88.78
-118.46
-143.59
-162.86
-176.05
-183.63
-186.27
-184.50
-178.85
-170.20
-159.94
-149.84
-141.58
-136.10
-133.25
-131.97
-130.85
-128.70
-124.97
-119.69
-113.21
-105.95
-98.21
-90.25
-82.44
-75.29
-69.39
-65.21
-63.09
-63.19
-65.61
-70.48
-77.87
-87.55
-98.78
-110.06
-119.24
-123.91
-122.13
-113.08
-97.50
-77.65
-56.70
-37.80
-23.29
-14.20
-10.29
-10.45
-13.22
-17.27
-21.57
-25.44
-28.52
-30.61
-31.73
-32.08
-31.94
-31.68
-31.59
-31.83
-32.51
-33.77
-36.00
-39.78
-45.70
-53.86
-63.38
-72.20
-77.41
-76.18
-66.86
-49.83
-27.60
-4.03
16.87
32.21
40.89
43.53
41.85
37.80
33.00
28.47
24.74
22.03
20.40
19.73
19.69
19.75
19.28
17.75
14.88
10.64
5.27
-1.03
-8.25
-16.54
-26.11
-36.76
-47.51
-56.50
-61.23
-59.41
-49.85
-33.19
-11.92
10.20
29.37
42.72
49.13
49.12
44.33
36.88
28.68
21.20
15.40
11.69
10.04
9.99
10.71
11.28
10.92
9.22
6.19
2.06
-2.87
-8.62
-15.51
-24.03
-34.43
-46.18
-57.79
-66.82
-70.50
-66.62
-54.43
-35.13
-11.75
11.58
30.94
43.52
48.38
46.39
39.64
30.63
21.60
14.06
8.71
5.60
4.21
3.81
3.53
2.60
0.49
-3.08
-8.08
-14.39
-21.92
-30.81
-41.36
-53.87
-68.08
-82.75
-95.47
-103.00
-102.22
-91.23
-70.42
-42.54
-12.09
15.99
37.77
51.18
56.15
54.15
47.43
38.36
28.98
20.82
14.82
11.22
9.67
9.28
8.90
7.42
4.09
-1.37
-8.78
-17.60
-27.07
-36.26
-44.23
-49.98
-52.47
-50.68
-43.76
-31.14
-12.85
10.22
36.13
61.94
84.17
99.51
105.77
102.57
91.61
76.22
60.50
48.22
41.86
42.25
48.55
58.74
70.32
80.78
88.22
91.49
90.37
85.36
77.45
67.57
56.29
43.74
29.71
14.10
-2.75
-19.73
-34.99
-46.24
-51.25
-48.54
-37.95
-20.94
-0.41
19.72
35.37
43.22
41.44
30.07
10.84
-13.29
-38.73
-61.71
-78.68
-86.66
-83.84
-70.23
-48.06
-21.55
4.20
24.64
37.22
41.85
40.53
36.08
31.07
27.23
25.69
27.47
33.83
45.79
63.44
85.27
108.29
129.19
145.81
158.12
168.12
178.69
192.02
208.75
228.08
248.60
269.26
289.64
309.37
327.37
341.62
349.75
350.12
342.75
329.21
311.75
292.21
271.23
248.50
223.55
196.42
168.06
139.80
112.61
86.47
60.24
32.17
0.75
-34.49
-72.74
-112.19
-150.81
-187.24
-221.25
-253.90
-287.19
-323.63
-365.47
-413.67
-466.94
-520.89
-568.32
-600.78
-611.24
-596.88
-560.62
-510.54
-457.38
-411.04
-377.68
-358.52
-350.51
-348.12
-345.35
-337.09
-319.76
-291.52
-252.31
-204.15
-151.00
-98.34
-52.12
-17.05
4.70
14.11
14.88
12.02
10.08
11.76
17.38
25.41
33.50
39.64
42.77
43.03
41.43
39.44
38.42
39.18
41.60
44.52
46.23
45.19
41.07
35.28
30.77
31.04
38.86
55.14
78.64
106.43
134.84
160.43
180.51
193.28
197.87
194.32
183.71
168.16
150.55
133.89
120.51
111.45
106.32
103.66
101.59
98.55
93.65
86.74
78.19
68.50
58.06
46.99
35.07
21.82
6.80
-9.94
-27.34
-43.05
-53.81
-56.44
-49.13
-32.46
-9.36
15.62
37.95
54.40
63.65
66.18
63.49
57.32
49.26
40.56
32.17
24.82
18.93
14.56
11.47
9.14
6.89
3.89
-0.70
-7.69
-17.66
-30.82
-46.98
-65.51
-85.30
-104.69
-121.41
-132.75
-136.09
-129.65
-113.33
-89.06
-60.51
-32.08
-7.77
9.84
19.83
22.64
19.35
11.22
-0.55
-14.48
-28.53
-40.17
-46.91
-47.37
-42.04
-33.30
-24.46
-18.25
-15.56
-15.16
-14.77
-12.77
-9.51
-7.33
-9.13
-16.25
-26.92
-36.27
-38.09
-27.45
-2.95
32.41
72.29
109.47
138.43
157.14
167.11
171.91
174.94
177.83
180.04
179.94
176.38
169.77
161.99
155.12
150.04
145.64
139.43
128.96
113.27
93.37
71.61
50.41
31.15
13.97
-1.48
-14.95
-25.05
-29.44
-25.90
-13.64
6.07
30.05
54.24
75.01
90.05
98.54
100.77
97.50
89.55
77.86
63.63
48.52
34.39
22.92
15.05
10.85
9.49
9.70
10.10
9.52
7.07
2.10
-5.94
-17.49
-32.69
-50.97
-70.72
-89.19
-102.91
-108.60
-104.29
-90.20
-68.94
-44.77
-22.34
-5.32
4.43
6.92
3.58
-3.48
-12.09
-20.36
-26.81
-30.46
-30.94
-28.55
-24.18
-19.04
-14.38
-11.12
-9.65
-9.85
-11.29
-13.50
-16.32
-20.01
-25.11
-31.90
-39.84
-47.24
-51.44
-49.69
-40.26
-23.35
-1.28
22.23
43.19
58.57
66.94
68.56
64.80
57.65
49.16
41.22
35.29
32.24
32.20
34.56
38.11
41.42
43.24
42.76
39.74
34.45
27.40
19.10
9.83
-0.51
-12.23
-25.40
-39.36
-52.37
-61.73
-64.58
-58.94
-44.65
-23.72
0.19
22.88
40.88
52.20
56.55
54.93
49.03
40.73
31.86
23.99
18.33
15.43
15.08
16.33
17.79
18.12
16.48
12.81
7.69
1.98
-3.67
-9.20
-15.19
-22.57
-32.00
-43.23
-54.72
-63.78
-67.40
-63.36
-51.17
-32.47
-10.54
10.71
27.93
39.13
43.90
43.03
38.02
30.48
21.94
13.71
6.83
1.99
-0.63
-1.32
-0.91
-0.41
-0.77
-2.66
-6.35
-11.83
-18.98
-27.80
-38.26
-49.98
-61.88
-72.01
-77.81
-76.91
-68.08
-51.83
-30.50
-7.61
13.17
29.02
38.54
41.80
39.94
34.61
27.47
19.99
13.30
8.11
4.80
3.31
3.21
3.79
4.24
3.81
2.02
-1.40
-6.52
-13.42
-22.21
-32.84
-44.67
-56.17
-64.89
-68.05
-63.47
-50.52
-30.58
-6.76
17.04
37.24
51.50
59.01
60.29
56.68
49.91
41.71
33.68
27.05
22.50
20.10
19.30
19.20
18.84
17.57
15.13
11.55
6.93
1.19
-6.01
-15.12
-26.22
-38.58
-50.44
-59.19
-62.15
-57.46
-44.90
-26.09
-4.13
17.35
35.15
47.25
53.10
53.35
49.46
43.24
36.41
30.39
26.10
23.90
23.62
24.67
26.24
27.52
27.82
26.76
24.23
20.35
15.31
9.20
1.95
-6.49
-15.83
-25.03
-32.22
-35.08
-31.60
-21.04
-4.43
15.56
35.35
51.55
61.80
65.24
62.38
54.72
44.28
33.17
23.24
15.84
11.58
10.24
10.93
12.34
13.13
12.33
9.55
5.00
-0.70
-6.90
-13.27
-20.04
-27.87
-37.38
-48.47
-59.87
-69.18
-73.56
-70.80
-60.30
-43.45
-23.27
-3.41
12.94
23.81
28.65
28.03
23.29
16.04
7.94
0.56
-4.91
-7.87
-8.43
-7.31
-5.57
-4.11
-3.42
-3.53
-4.21
-5.32
-7.15
-10.37
-15.76
-23.70
-33.58
-43.54
-50.81
-52.47
-46.57
-32.93
-13.45
8.52
29.15
45.31
55.21
58.57
56.22
49.62
40.43
30.34
20.92
13.45
8.70
6.73
6.88
8.01
8.79
8.18
5.62
1.05
-5.28
-13.10
-22.35
-33.11
-45.27
-58.06
-69.84
-78.32
-81.15
-76.95
-65.93
-50.06
-32.48
-16.61
-5.16
0.44
0.12
-5.10
-13.61
-23.62
-33.48
-41.88
-48.03
-51.66
-52.93
-52.32
-50.42
-47.77
-44.78
-41.76
-38.88
-36.36
-34.48
-33.62
-34.08
-35.79
-38.12
-39.71
-38.77
-33.60
-23.19
-7.63
11.77
32.79
52.76
69.20
80.28
85.13
84.00
78.20
69.88
61.52
55.33
52.70
53.93
58.27
64.30
70.53
75.80
79.57
81.81
82.76
82.52
80.83
77.05
70.36
60.23
46.83
31.39
16.12
3.66
-3.67
-4.81
-0.37
7.39
15.33
20.34
20.23
14.32
3.36
-10.72
-25.56
-38.87
-48.84
-54.33
-54.84
-50.50
-42.08
-30.99
-19.27
-9.24
-3.08
-2.27
-7.11
-16.70
-29.13
-42.07
-53.19
-60.50
-62.45
-58.18
-47.70
-32.16
-13.91
3.95
18.43
27.59
31.16
30.29
26.75
21.89
16.04
8.73
-0.48
-11.23
-22.09
-31.30
-37.77
-42.02
-46.08
-52.66
-63.81
-79.93
-99.53
-119.78
-137.49
-150.08
-156.10
-155.46
-149.08
-138.28
-124.13
-107.02
-86.88
-63.96
-39.67
-16.86
0.84
10.67
12.19
7.85
2.03
-1.18
0.05
4.59
9.34
11.21
8.83
2.91
-4.67
-12.48
-20.43
-29.46
-40.28
-52.02
-61.75
-65.28
-58.82
-40.56
-11.54
24.70
63.25
99.38
129.71
152.72
168.59
178.51
183.86
185.56
183.98
179.22
171.65
162.17
152.09
142.68
134.52
127.22
119.63
110.44
98.85
84.84
69.08
52.62
36.57
22.13
10.70
3.83
2.84
8.20
18.94
32.58
45.78
55.31
59.11
56.72
49.13
38.12
25.57
12.97
1.36
-8.59
-16.42
-21.91
-25.15
-26.66
-27.24
-27.83
-29.24
-31.96
-36.31
-42.45
-50.54
-60.55
-71.92
-83.20
-92.07
-95.91
-92.67
-81.77
-64.57
-44.04
-23.78
-6.91
4.69
10.59
11.45
8.47
2.93
-3.95
-11.06
-17.33
-21.88
-24.17
-24.22
-22.57
-20.12
-17.92
-16.85
-17.57
-20.61
-26.29
-34.65
-45.08
-55.97
-64.82
-68.77
-65.54
-54.45
-36.90
-16.01
4.36
20.90
31.75
36.66
36.56
32.76
26.47
18.65
10.16
2.03
-4.66
-8.97
-10.58
-9.94
-8.21
-6.88
-7.31
-10.41
-16.56
-25.66
-37.11
-49.76
-61.82
-70.91
-74.56
-70.88
-59.42
-41.48
-19.88
1.87
20.63
34.42
42.63
45.69
44.54
40.11
33.32
25.11
16.63
9.16
3.74
0.87
0.19
0.68
0.92
-0.46
-4.45
-11.60
-21.94
-34.91
-49.18
-62.52
-72.09
-75.07
-69.67
-55.92
-36.01
-13.63
7.15
23.16
32.98
36.94
36.49
33.33
28.81
23.69
18.40
13.32
9.03
6.08
4.78
4.86
5.49
5.47
3.72
-0.42
-7.06
-15.96
-26.63
-38.45
-50.33
-60.48
-66.48
-65.80
-56.83
-39.76
-16.89
7.88
30.30
47.13
56.91
60.04
58.20
53.40
47.42
41.45
36.23
32.13
29.28
27.54
26.52
25.62
24.18
21.63
17.71
12.49
6.25
-0.74
-8.39
-16.88
-26.48
-37.03
-47.46
-55.65
-58.83
-54.63
-42.11
-22.47
1.12
24.48
43.82
56.77
62.83
62.97
58.98
52.74
45.87
39.65
35.03
32.54
32.21
33.40
35.01
35.75
34.61
31.16
25.59
18.61
11.01
3.35
-4.35
-12.60
-22.21
-33.70
-46.69
-59.49
-69.25
-72.80
-67.81
-53.87
-32.87
-8.52
14.88
33.73
46.03
51.51
51.17
46.69
39.81
32.22
25.38
20.49
18.17
18.23
19.66
20.85
20.27
16.99
11.07
3.42
-4.60
-11.76
-17.43
-21.80
-25.75
-30.64
-37.78
-47.84
-60.31
-73.23
-83.50
-87.73
-83.47
-70.22
-49.77
-25.68
-2.05
17.66
31.50
39.14
41.38
39.56
35.10
29.33
23.59
19.14
16.97
17.44
20.07
23.56
26.23
26.65
24.17
19.20
12.95
6.87
2.09
-1.09
-3.26
-5.66
-9.81
-16.85
-27.10
-39.57
-51.95
-61.00
-63.47
-57.26
-42.30
-20.75
3.66
26.88
45.70
58.52
65.25
66.76
64.28
58.95
51.92
44.48
38.07
33.99
32.91
34.53
37.51
39.98
40.22
37.40
31.84
24.76
17.70
11.80
7.41
4.00
0.48
-4.44
-11.82
-22.16
-35.05
-48.95
-61.22
-68.70
-68.59
-59.57
-42.40
-19.90
4.00
25.46
41.76
51.71
55.51
54.07
48.69
40.76
31.86
23.66
17.72
15.03
15.62
18.45
21.82
23.83
23.14
19.32
12.91
5.10
-2.70
-9.44
-14.77
-19.03
-23.23
-28.57
-36.05
-45.93
-57.37
-68.35
-75.98
-77.42
-70.76
-55.90
-34.75
-10.70
12.36
31.12
43.56
49.06
48.19
42.25
32.94
22.27
12.31
4.96
1.39
1.66
4.66
8.44
11.03
11.05
8.24
3.30
-2.53
-8.05
-12.57
-16.05
-19.08
-22.68
-27.90
-35.40
-44.97
-55.14
-63.30
-66.30
-61.58
-48.30
-27.83
-3.48
20.58
40.64
54.42
61.37
62.18
58.18
50.78
41.32
31.22
22.07
15.39
12.15
12.36
14.95
18.04
19.72
18.66
14.59
8.19
0.72
-6.62
-13.17
-18.93
-24.54
-30.91
-38.91
-48.87
-60.31
-71.65
-80.47
-84.04
-80.17
-68.09
-48.93
-25.51
-1.56
19.31
34.55
43.10
45.29
42.41
36.20
28.49
20.86
14.62
10.53
8.81
9.01
10.19
11.21
11.07
9.25
5.73
0.96
-4.52
-10.28
-16.32
-23.01
-30.93
-40.50
-51.36
-62.16
-70.52
-73.63
-69.21
-56.47
-36.67
-12.88
10.89
30.92
44.76
51.61
52.03
47.46
39.67
30.54
21.82
15.00
10.99
9.86
10.82
12.45
13.26
12.22
9.04
4.17
-1.56
-7.34
-12.73
-17.82
-23.20
-29.74
-38.19
-48.59
-59.86
-69.72
-75.14
-73.27
-62.56
-43.56
-18.96
7.12
30.36
47.50
57.00
59.10
55.34
47.80
38.64
29.71
22.47
17.82
16.01
16.57
18.45
20.35
21.03
19.76
16.42
11.41
5.44
-0.83
-7.15
-13.82
-21.55
-31.02
-42.19
-53.80
-63.37
-67.88
-64.87
-53.57
-35.45
-13.80
7.28
24.14
34.53
37.85
34.96
27.58
17.76
7.55
-1.30
-7.51
-10.53
-10.64
-8.82
-6.47
-4.89
-4.86
-6.52
-9.45
-12.99
-16.73
-20.70
-25.52
-32.01
-40.71
-51.22
-61.90
-70.01
-72.52
-67.11
-53.31
-32.80
-9.06
13.68
31.76
43.00
47.05
44.98
38.65
30.05
20.94
12.75
6.50
2.78
1.67
2.60
4.59
6.42
7.05
5.86
2.73
-2.13
-8.53
-16.48
-26.11
-37.30
-49.15
-59.72
-66.24
-65.99
-57.37
-40.75
-18.65
5.02
26.15
41.63
49.99
51.44
47.32
39.56
30.17
20.96
13.45
8.58
6.66
7.25
9.37
11.75
13.26
13.17
11.22
7.52
2.29
-4.40
-12.70
-22.76
-34.22
-45.76
-54.96
-58.80
-54.69
-41.61
-20.81
4.38
29.54
50.52
64.66
71.20
70.98
65.86
57.91
48.98
40.59
33.81
29.31
27.26
27.25
28.44
29.76
30.19
29.12
26.39
22.20
16.78
10.17
2.09
-7.82
-19.36
-31.37
-41.49
-46.72
-44.42
-33.47
-15.00
7.83
30.76
49.77
62.22
67.33
65.99
60.07
51.70
42.76
34.75
28.71
25.23
24.40
25.82
28.63
31.76
34.16
35.11
34.37
32.15
28.87
24.81
19.82
13.41
5.16
-4.51
-13.94
-20.28
-20.37
-12.09
4.52
26.84
50.40
70.33
83.00
86.88
82.64
72.39
58.66
43.67
29.05
15.84
4.68
-4.15
-10.75
-15.62
-19.56
-23.47
-28.01
-33.53
-40.04
-47.47
-55.85
-65.49
-76.75
-89.56
-102.96
-114.81
-122.08
-121.69
-111.75
-92.50
-66.51
-38.10
-11.91
8.42
21.14
26.50
26.20
22.45
17.29
12.27
8.32
5.99
5.47
6.63
9.01
11.84
14.14
14.99
13.64
9.64
2.79
-7.04
-19.77
-34.94
-51.23
-66.23
-76.59
-78.92
-70.98
-52.85
-27.26
1.00
26.59
45.28
55.01
56.20
50.98
42.20
32.54
23.92
17.45
13.57
12.16
12.70
14.32
15.99
16.72
15.85
13.11
8.67
2.90
-4.00
-12.19
-22.10
-34.04
-47.45
-60.46
-69.98
-72.52
-65.52
-48.66
-24.22
3.44
29.31
49.32
61.40
65.59
63.50
57.31
49.10
40.44
32.45
25.92
21.33
18.88
18.37
19.24
20.72
21.95
22.23
21.01
17.88
12.50
4.61
-5.80
-18.14
-30.88
-41.51
-47.06
-45.03
-34.42
-16.41
5.76
27.68
45.19
55.53
58.00
53.73
44.94
34.03
22.98
13.15
5.34
-0.04
-2.90
-3.56
-2.75
-1.53
-1.04
-2.13
-5.24
-10.42
-17.57
-26.66
-37.59
-49.91
-62.39
-72.86
-78.61
-77.25
-67.71
-50.94
-29.76
-8.01
10.60
23.56
30.02
30.55
26.65
20.07
12.55
5.65
0.85
-0.61
1.94
8.29
17.14
26.24
32.94
34.87
30.60
20.01
4.33
-14.22
-32.73
-47.98
-56.83
-56.57
-45.64
-24.30
5.00
37.86
69.00
93.72
109.33
115.78
115.29
111.24
106.81
104.08
103.61
104.58
105.26
103.51
97.43
86.00
69.47
49.31
27.77
6.90
-12.22
-29.96
-47.75
-67.20
-88.96
-112.03
-133.63
-149.84
-156.86
-152.37
-136.42
-111.66
-82.62
-54.34
-30.87
-14.38
-5.02
-1.48
-1.81
-4.09
-6.70
-8.35
-8.04
-5.21
0.02
6.78
13.62
18.96
21.68
21.43
18.59
13.80
7.52
-0.17
-9.32
-19.35
-28.52
-33.93
-32.28
-21.33
-1.01
26.06
55.17
81.15
100.13
110.56
113.04
109.23
100.76
88.70
73.83
57.24
40.69
26.21
15.25
8.06
3.66
0.49
-2.65
-6.08
-9.34
-11.94
-14.13
-17.12
-22.73
-32.32
-45.77
-60.97
-74.06
-80.52
-76.68
-61.22
-35.80
-4.62
26.88
53.81
73.01
83.57
86.36
83.18
76.03
66.73
56.80
47.56
40.08
35.03
32.51
32.07
32.82
33.82
34.29
33.86
32.50
30.30
27.21
22.93
17.09
9.59
1.05
-6.93
-12.17
-12.51
-6.83
4.34
18.77
33.16
44.12
49.26
47.71
40.12
28.21
14.16
0.10
-12.22
-21.63
-27.68
-30.65
-31.48
-31.59
-32.45
-35.13
-40.03
-46.82
-54.64
-62.53
-69.81
-76.35
-82.55
-89.04
-96.16
-103.48
-109.65
-112.65
-110.52
-102.19
-88.05
-69.98
-50.88
-33.76
-21.03
-14.02
-12.85
-16.73
-24.25
-33.72
-43.35
-51.56
-57.15
-59.54
-58.85
-55.83
-51.60
-47.35
-44.01
-42.10
-41.73
-42.68
-44.72
-47.73
-51.92
-57.65
-65.17
-74.14
-83.23
-90.18
-92.17
-86.74
-72.71
-50.81
-23.72
4.54
29.75
48.49
58.98
61.20
56.64
47.64
36.78
26.24
17.50
11.18
7.20
4.92
3.47
1.99
-0.18
-3.43
-7.88
-13.45
-20.01
-27.54
-36.32
-46.80
-59.40
-73.91
-88.96
-101.86
-109.12
-107.57
-95.74
-74.69
-48.03
-20.80
2.13
17.54
24.46
23.99
18.33
9.95
0.95
-7.02
-12.78
-15.59
-15.20
-12.04
-7.16
-1.99
2.07
4.05
3.54
0.62
-4.46
-11.56
-20.86
-32.57
-46.53
-61.40
-74.48
-81.94
-79.88
-65.88
-40.28
-6.55
29.51
61.54
84.57
96.36
97.53
90.80
79.67
67.34
56.08
47.23
41.36
38.44
37.97
38.97
40.23
40.53
39.01
35.34
29.76
22.74
14.67
5.50
-5.23
-17.95
-32.49
-47.34
-59.68
-65.98
-63.30
-50.63
-29.59
-4.19
20.47
39.89
51.46
54.93
51.98
45.19
37.16
29.79
24.20
20.78
19.39
19.51
20.33
20.85
20.06
17.16
11.80
4.16
-5.10
-15.23
-25.85
-37.19
-49.98
-64.66
-80.42
-94.63
-103.12
-101.55
-87.31
-60.94
-26.46
9.83
41.35
63.27
73.65
73.37
65.13
52.25
37.79
24.17
13.13
5.70
2.20
2.07
4.01
6.29
7.33
6.18
2.70
-2.62
-9.18
-16.76
-25.74
-36.83
-50.29
-65.19
-78.87
-87.45
-87.04
-75.32
-52.73
-22.69
9.48
38.30
59.82
72.46
76.83
74.88
68.80
60.52
51.56
43.50
38.08
37.13
42.08
53.34
69.87
89.15
107.56
120.92
125.37
118.01
97.62
65.11
23.81
-20.70
-61.28
-90.61
-103.02
-96.22
-72.31
-37.27
0.74
33.89
56.79
67.66
67.94
60.97
50.39
39.04
28.65
20.19
14.24
11.19
11.04
13.09
15.96
17.88
17.33
13.53
6.66
-2.64
-13.77
-26.63
-41.49
-58.16
-75.12
-89.10
-95.78
-91.37
-74.42
-46.90
-13.93
17.88
42.59
56.71
59.97
54.66
44.38
32.65
22.01
13.86
8.69
6.48
6.91
9.42
13.18
17.14
20.16
21.29
19.89
15.73
8.77
-1.00
-13.58
-28.57
-44.63
-59.08
-68.07
-67.63
-55.22
-31.08
1.40
36.49
67.93
90.88
103.16
105.37
100.09
90.59
79.88
70.19
62.97
58.99
58.39
60.68
64.78
69.18
72.36
73.13
70.93
65.88
58.53
49.44
38.77
26.17
11.15
-6.26
-24.68
-41.09
-51.39
-51.71
-40.14
-17.77
11.26
41.03
65.73
81.42
86.96
83.68
74.39
62.15
49.47
38.05
28.84
22.31
18.51
16.94
16.58
16.05
13.96
9.37
2.13
-7.24
-17.91
-29.13
-40.59
-52.27
-63.87
-74.33
-81.53
-82.74
-75.65
-59.40
-35.43
-7.29
20.33
42.95
57.54
63.13
60.61
52.10
40.15
27.09
14.82
4.67
-2.59
-6.77
-8.25
-7.87
-6.75
-6.06
-6.71
-9.26
-13.88
-20.56
-29.27
-40.10
-53.03
-67.59
-82.26
-94.47
-100.90
-98.60
-86.18
-64.64
-37.41
-9.40
14.44
30.59
37.72
36.64
29.60
19.40
8.54
-1.23
-8.91
-14.19
-17.18
-18.35
-18.36
-18.04
-18.24
-19.68
-22.86
-27.98
-35.07
-44.13
-55.12
-67.75
-80.98
-92.79
-100.21
-100.11
-90.37
-70.91
-44.14
-14.37
13.49
35.41
49.28
55.09
54.35
49.20
41.66
33.32
25.37
18.69
13.97
11.56
11.36
12.73
14.64
15.83
15.19
11.92
5.53
-4.15
-17.00
-32.47
-49.24
-64.97
-76.42
-80.16
-73.60
-56.25
-30.20
0.23
29.66
53.34
68.28
73.85
71.34
63.16
51.94
39.95
28.95
20.15
14.25
11.36
11.02
12.21
13.58
13.85
12.10
8.00
1.75
-6.26
-15.80
-27.00
-40.05
-54.61
-69.09
-80.45
-84.86
-78.97
-61.54
-34.36
-2.11
29.03
53.39
67.50
70.81
65.29
54.25
41.16
28.72
18.74
12.11
9.05
9.15
11.41
14.43
16.66
16.90
14.66
10.19
4.25
-2.38
-9.46
-17.51
-27.53
-40.23
-55.09
-69.77
-80.37
-82.59
-73.44
-52.80
-23.81
7.90
36.06
55.76
64.73
63.52
54.67
41.56
27.39
14.59
4.71
-1.46
-3.84
-3.02
-0.17
3.22
5.68
6.14
4.22
0.19
-5.33
-11.82
-19.25
-28.15
-39.16
-52.23
-65.84
-76.88
-81.36
-75.88
-59.19
-33.07
-2.06
28.03
51.98
66.64
71.40
67.75
58.32
45.87
32.88
21.34
12.71
7.82
6.69
8.46
11.59
14.31
15.23
13.66
9.75
4.17
-2.34
-9.48
-17.56
-27.33
-39.28
-52.78
-65.61
-74.23
-74.81
-64.86
-44.47
-16.59
13.70
40.89
60.64
70.85
71.76
65.30
54.25
41.49
29.50
20.16
14.49
12.58
13.60
16.04
18.18
18.61
16.57
12.13
5.98
-0.98
-8.20
-15.79
-24.45
-35.05
-47.80
-61.52
-73.48
-80.00
-77.79
-65.35
-43.82
-16.87
10.44
33.24
48.19
54.11
51.82
43.37
31.31
18.08
5.77
-4.02
-10.35
-12.99
-12.58
-10.45
-8.26
-7.62
-9.60
-14.49
-21.91
-31.04
-41.14
-51.73
-62.58
-73.29
-82.76
-88.91
-89.07
-80.94
-63.78
-39.14
-10.78
16.43
38.04
51.34
55.90
53.22
45.78
36.17
26.45
18.06
11.92
8.46
7.71
9.18
11.91
14.62
16.04
15.23
11.80
5.81
-2.48
-12.92
-25.48
-39.91
-55.14
-68.80
-77.47
-77.57
-66.87
-45.72
-17.27
13.30
40.45
60.03
70.26
71.71
66.59
57.69
47.65
38.56
31.90
28.45
28.35
31.03
35.38
39.96
43.40
44.78
43.75
40.52
35.45
28.65
19.67
7.71
-7.69
-25.76
-43.94
-58.14
-63.93
-58.34
-41.27
-15.90
12.17
36.75
53.01
58.81
54.97
44.52
31.44
19.28
10.18
4.38
0.51
-3.64
-9.96
-19.11
-30.14
-40.93
-49.12
-53.00
-52.10
-47.08
-39.48
-31.44
-25.55
-24.52
-30.39
-43.40
-61.10
-78.48
-89.56
-89.65
-77.37
-55.14
-27.97
-1.25
21.29
38.25
49.89
56.96
59.62
57.55
50.52
39.29
25.90
13.51
5.54
4.67
11.66
24.69
39.49
50.43
52.45
42.95
22.86
-3.76
-31.23
-54.36
-69.88
-76.77
-75.78
-68.40
-56.21
-40.80
-23.95
-7.89
5.05
12.85
14.43
10.10
1.62
-8.26
-16.52
-20.85
-20.39
-15.77
-8.74
-1.23
5.48
11.13
16.18
21.22
26.22
30.18
31.40
28.14
19.66
7.06
-6.55
-16.71
-19.01
-10.71
8.04
34.17
62.67
88.35
107.46
118.56
122.30
120.50
115.16
107.74
99.27
90.46
82.09
74.97
69.78
66.81
65.66
65.44
64.87
62.75
58.16
50.59
39.74
25.49
8.01
-11.79
-31.80
-48.55
-57.92
-56.45
-42.84
-18.86
10.88
40.43
64.49
79.94
86.44
85.71
80.27
72.31
63.14
53.35
43.27
33.22
23.55
14.47
5.80
-2.85
-11.92
-21.49
-31.25
-40.50
-48.66
-55.66
-62.26
-69.85
-79.74
-92.20
-105.66
-116.59
-120.50
-113.59
-94.53
-65.36
-31.01
2.29
29.22
46.82
54.91
55.32
50.68
43.34
35.00
26.72
19.09
12.32
6.25
0.30
-6.27
-14.03
-23.08
-32.95
-42.84
-52.03
-60.19
-67.63
-75.26
-84.38
-96.10
-110.66
-126.73
-141.09
-149.21
-146.64
-130.78
-102.28
-65.24
-26.00
8.97
35.14
51.08
58.20
59.50
58.07
56.08
54.56
53.68
53.31
53.11
52.60
51.02
47.48
41.29
32.36
21.38
9.59
-1.66
-11.44
-19.58
-26.72
-34.13
-43.31
-55.33
-70.04
-85.56
-98.26
-103.71
-98.17
-80.21
-51.57
-16.67
18.81
49.91
73.67
89.41
98.05
101.13
100.06
96.01
90.18
83.91
78.60
75.17
73.58
72.77
71.07
66.89
59.52
49.41
37.89
26.55
16.54
8.05
0.24
-8.43
-19.69
-34.64
-53.08
-73.04
-90.92
-102.28
-103.25
-92.07
-69.93
-40.70
-9.69
18.22
40.01
54.90
63.70
67.70
67.80
64.47
58.17
50.03
41.90
35.77
32.89
33.14
34.98
36.12
34.59
29.56
21.65
12.45
3.77
-3.20
-8.27
-12.19
-16.24
-21.78
-29.85
-41.00
-54.94
-70.30
-84.45
-93.88
-95.10
-85.99
-66.88
-40.75
-12.33
13.56
33.64
46.89
54.26
57.55
58.35
57.65
56.08
54.50
54.20
56.50
61.96
69.73
77.52
82.36
81.82
75.09
63.41
49.60
37.02
28.29
24.45
24.70
26.86
28.16
26.05
18.72
5.43
-13.32
-35.68
-58.33
-77.04
-87.51
-86.73
-74.09
-51.79
-24.14
3.83
28.02
46.25
58.29
65.12
67.92
67.42
64.03
58.26
51.22
44.60
40.12
38.79
40.28
42.99
44.74
43.75
39.44
32.53
24.56
17.04
10.79
5.60
0.60
-5.37
-13.30
-23.87
-37.27
-52.96
-69.41
-83.89
-92.97
-93.45
-83.61
-64.07
-37.86
-9.41
16.84
37.72
51.81
59.20
60.76
57.60
50.87
41.97
32.68
25.05
20.84
20.91
24.80
30.84
36.75
40.39
40.54
37.22
31.54
25.21
19.81
16.20
14.28
12.98
10.58
5.12
-5.03
-20.52
-40.44
-62.01
-80.97
-92.70
-93.67
-82.74
-61.63
-34.44
-6.30
18.03
35.15
43.37
42.53
33.76
19.24
2.08
-14.08
-25.78
-30.67
-28.22
-19.94
-8.85
1.56
8.50
10.66
8.42
3.39
-2.44
-7.50
-11.17
-13.77
-16.28
-19.84
-25.42
-33.48
-43.76
-55.12
-65.46
-72.09
-72.36
-64.56
-48.70
-26.76
-2.22
20.90
39.12
50.27
53.78
50.41
41.86
30.28
17.96
7.03
-0.89
-4.99
-5.48
-3.50
-0.75
1.09
0.96
-1.38
-5.42
-10.26
-15.21
-20.02
-25.02
-30.97
-38.74
-48.86
-61.06
-73.97
-85.07
-91.21
-89.48
-78.31
-58.16
-31.70
-3.08
23.22
43.62
56.16
60.66
58.25
50.84
40.65
29.83
20.33
13.58
10.27
10.19
12.32
15.11
17.04
17.05
14.79
10.54
4.94
-1.37
-8.11
-15.49
-24.12
-34.65
-47.20
-60.80
-73.25
-81.37
-81.99
-73.09
-54.76
-29.47
-1.38
24.91
45.71
59.04
64.72
63.84
58.09
49.26
39.09
29.24
21.19
15.96
13.79
13.94
14.98
15.25
13.55
9.54
3.72
-2.84
-9.08
-14.39
-18.82
-23.05
-28.21
-35.44
-45.28
-57.23
-69.44
-78.89
-82.21
-76.76
-61.74
-38.67
-11.08
16.51
39.91
56.32
64.74
65.78
61.03
52.45
41.98
31.36
22.09
15.31
11.57
10.65
11.64
13.12
13.73
12.61
9.63
5.30
0.39
-4.55
-9.50
-15.04
-22.06
-31.21
-42.33
-54.08
-63.99
-68.99
-66.46
-55.22
-36.20
-12.35
12.24
33.50
48.53
56.13
56.72
51.84
43.52
33.82
24.51
16.92
11.82
9.32
8.99
9.91
11.08
11.58
10.86
8.75
5.37
1.02
-4.01
-9.65
-16.14
-23.87
-33.03
-43.10
-52.52
-58.85
-59.43
-52.36
-37.40
-16.28
7.69
30.57
48.94
60.68
65.28
63.58
57.24
48.26
38.54
29.74
23.10
19.33
18.41
19.63
21.73
23.29
23.17
20.88
16.64
11.10
4.91
-1.71
-9.05
-17.72
-28.08
-39.71
-51.15
-60.10
-64.09
-61.37
-51.70
-36.52
-18.72
-1.71
11.48
18.94
20.19
15.96
7.80
-2.45
-12.96
-22.23
-29.17
-33.29
-34.62
-33.70
-31.38
-28.62
-26.28
-25.03
-25.27
-27.22
-31.01
-36.79
-44.63
-54.27
-64.77
-74.28
-80.21
-79.89
-71.51
-55.01
-32.39
-7.26
16.20
34.51
45.74
49.72
47.73
41.70
33.62
25.13
17.43
11.31
7.21
5.18
4.91
5.72
6.70
7.02
6.08
3.60
-0.46
-6.22
-13.93
-23.75
-35.38
-47.43
-57.36
-61.95
-58.38
-45.46
-24.40
1.36
27.20
48.83
63.47
70.39
70.56
65.91
58.51
50.16
42.23
35.71
31.22
28.88
28.25
28.39
28.14
26.49
22.94
17.59
10.94
3.46
-4.76
-14.10
-25.06
-37.67
-50.87
-62.32
-68.85
-67.55
-56.91
-37.66
-12.72
13.59
36.86
53.80
62.88
64.40
59.97
51.78
42.03
32.52
24.53
18.77
15.37
14.03
14.04
14.55
14.71
13.84
11.63
8.06
3.32
-2.39
-9.06
-16.91
-26.15
-36.52
-46.87
-55.01
-58.17
-54.00
-41.63
-22.30
0.73
23.13
40.88
51.44
54.19
50.25
41.85
31.44
21.21
12.74
6.91
3.93
3.40
4.45
5.97
6.88
6.42
4.25
0.46
-4.67
-10.98
-18.60
-28.02
-39.80
-54.00
-69.58
-84.19
-94.43
-96.99
-89.86
-73.36
-50.33
-25.30
-3.07
12.76
20.64
21.05
15.86
7.43
-2.02
-10.73
-17.42
-21.33
-22.22
-20.48
-17.08
-13.32
-10.49
-9.45
-10.44
-13.24
-17.43
-22.82
-29.53
-37.76
-47.23
-56.62
-63.49
-64.77
-57.91
-42.04
-18.60
8.88
35.87
58.18
73.11
79.85
79.25
73.15
63.73
53.04
42.78
34.21
28.06
24.44
22.91
22.55
22.26
21.00
18.11
13.40
7.12
-0.30
-8.57
-17.77
-28.24
-40.14
-52.82
-64.39
-71.94
-72.40
-63.80
-46.27
-22.30
3.92
27.81
45.75
55.90
58.28
54.30
46.11
36.08
26.45
19.08
15.15
14.88
17.46
21.25
24.33
25.19
23.19
18.74
12.93
7.05
1.98
-2.11
-5.85
-10.38
-16.84
-25.64
-35.85
-45.06
-49.81
-46.69
-33.74
-11.48
17.01
46.95
73.42
92.89
103.95
107.10
103.97
96.46
86.24
74.85
63.82
54.68
48.63
46.02
46.13
47.27
47.44
45.07
39.53
31.28
21.51
11.59
2.55
-5.27
-12.28
-19.43
-27.90
-38.63
-51.87
-66.78
-81.34
-92.66
-97.78
-94.61
-82.83
-64.19
-42.13
-20.79
-3.87
6.24
8.66
3.86
-6.89
-21.84
-38.84
-55.41
-68.84
-76.77
-77.90
-72.64
-63.08
-52.34
-43.38
-37.89
-35.68
-35.11
-34.08
-31.30
-27.11
-23.46
-23.17
-28.76
-41.39
-60.18
-82.25
-103.14
-117.95
-122.56
-114.91
-95.68
-68.27
-37.80
-9.74
11.59
24.05
27.80
24.93
18.60
12.21
8.65
9.71
15.70
25.34
36.17
45.49
51.41
53.68
53.75
53.95
56.23
61.25
68.02
74.52
78.61
78.94
75.41
69.05
61.65
55.30
51.93
52.95
58.82
68.69
80.59
91.87
100.10
103.90
103.33
99.63
94.56
89.70
85.87
83.21
81.34
79.73
77.91
75.46
71.92
66.84
59.83
50.83
40.16
28.47
16.38
4.09
-8.69
-22.60
-37.89
-53.77
-68.11
-77.89
-80.23
-73.68
-59.03
-39.22
-18.41
-0.65
11.34
16.71
16.25
11.69
4.88
-2.74
-10.33
-17.50
-24.04
-29.79
-34.44
-37.64
-39.13
-38.92
-37.45
-35.53
-34.27
-34.83
-38.15
-44.66
-53.97
-64.64
-74.12
-79.11
-76.35
-63.70
-41.13
-11.08
22.00
52.81
76.66
90.72
94.48
89.50
78.63
65.03
51.42
39.67
30.80
25.12
22.57
22.94
25.77
30.26
35.00
38.01
36.98
29.77
15.15
-6.75
-34.20
-63.93
-91.64
-112.86
-123.93
-122.93
-110.29
-88.67
-62.22
-35.49
-12.21
5.40
16.82
22.89
25.18
25.41
25.00
24.87
25.34
26.17
26.73
26.33
24.57
21.40
17.05
11.77
5.71
-1.15
-8.96
-17.99
-28.54
-40.72
-54.11
-67.24
-77.49
-81.56
-76.67
-61.86
-38.90
-12.09
13.19
32.26
42.73
44.82
40.63
32.83
23.52
13.90
4.55
-4.03
-11.11
-15.97
-18.44
-19.32
-20.25
-23.11
-29.13
-38.36
-49.80
-62.08
-74.28
-86.25
-98.20
-109.74
-119.13
-123.38
-119.22
-104.75
-80.69
-50.48
-19.22
8.18
28.58
41.25
47.43
49.19
48.40
46.16
42.97
39.19
35.31
32.07
30.07
29.53
29.99
30.54
30.14
28.00
23.86
17.89
10.40
1.51
-8.81
-20.37
-32.16
-42.00
-46.92
-44.05
-31.97
-11.53
14.16
40.66
63.62
80.01
88.67
90.08
85.77
77.65
67.62
57.38
48.29
41.23
36.41
33.37
31.20
28.90
25.71
21.28
15.68
9.17
1.99
-5.85
-14.65
-24.97
-37.30
-51.56
-66.65
-80.16
-88.85
-89.50
-80.23
-61.41
-35.83
-7.92
17.64
37.29
49.39
54.19
53.23
48.60
42.29
36.01
31.07
28.32
28.05
29.84
32.58
34.69
34.53
30.88
23.37
12.69
0.33
-11.92
-22.70
-31.72
-39.78
-48.20
-57.72
-67.49
-74.89
-76.31
-68.89
-52.07
-28.28
-2.18
21.17
38.11
47.51
50.32
48.51
43.67
36.51
27.08
15.60
3.12
-8.49
-16.97
-20.58
-18.70
-11.95
-1.96
9.32
20.34
30.36
39.51
48.45
57.58
66.40
73.24
75.74
71.80
60.71
43.68
23.39
2.94
-15.33
-30.10
-40.61
-45.80
-44.02
-33.80
-15.24
8.95
33.84
54.01
65.82
68.92
65.95
60.80
56.59
54.43
53.77
53.58
53.59
54.51
57.36
62.48
68.88
74.58
77.40
75.85
69.68
59.69
47.29
33.99
21.18
10.15
2.04
-2.15
-1.78
3.13
11.81
22.77
34.12
43.88
50.44
52.81
50.72
44.74
35.97
25.77
15.41
5.80
-2.47
-9.22
-14.65
-19.40
-24.55
-31.38
-41.05
-54.09
-70.26
-88.68
-108.26
-128.05
-146.96
-163.36
-174.72
-178.01
-171.06
-153.97
-130.08
-105.34
-86.33
-77.82
-80.84
-92.44
-106.96
-118.33
-122.26
-117.56
-106.12
-92.20
-80.80
-75.79
-78.52
-86.71
-94.50
-93.82
-76.87
-39.42
16.42
81.35
140.97
180.49
190.51
171.07
132.01
89.06
57.52
46.60
57.01
82.38
113.31
141.44
161.43
170.63
167.74
152.09
124.45
88.55
51.60
22.86
10.62
18.62
44.26
79.56
114.21
139.48
150.96
149.15
138.00
122.47
106.27
91.00
76.47
61.62
45.52
27.84
8.72
-11.55
-32.83
-55.36
-79.51
-105.63
-133.73
-163.29
-193.21
-221.67
-246.24
-264.04
-272.32
-269.19
-254.58
-230.77
-202.07
-173.70
-150.17
-133.85
-124.43
-119.49
-115.51
-109.06
-97.32
-78.42
-51.75
-18.57
17.59
51.13
75.67
86.28
81.46
63.90
39.58
15.27
-3.91
-16.05
-22.12
-24.45
-24.75
-23.10
-18.07
-8.01
7.57
27.31
48.34
67.37
81.91
90.94
94.84
94.67
91.42
85.69
77.83
68.38
58.30
48.92
41.48
36.59
34.02
32.73
31.32
28.61
24.03
17.81
10.74
3.64
-3.12
-9.87
-17.41
-26.27
-35.96
-44.52
-48.78
-45.47
-32.52
-10.21
18.72
49.78
78.22
100.33
114.34
120.39
119.94
115.07
107.80
99.73
91.93
84.90
78.66
73.10
68.19
64.21
61.68
60.92
61.53
62.16
60.58
54.33
41.45
21.28
-5.22
-35.38
-65.22
-90.15
-105.98
-109.91
-101.33
-82.04
-55.75
-27.14
-0.72
20.07
33.21
38.22
35.94
28.22
17.59
6.73
-2.19
-7.92
-10.42
-10.56
-9.64
-8.98
-9.58
-12.05
-16.69
-23.60
-32.71
-43.84
-56.75
-70.89
-85.15
-97.63
-105.55
-106.01
-96.94
-78.32
-52.82
-25.49
-2.46
10.96
12.03
1.57
-16.28
-35.57
-50.76
-58.84
-60.42
-59.15
-59.68
-64.93
-74.43
-84.19
-88.52
-82.59
-64.48
-35.89
-1.49
32.42
59.32
73.76
72.60
56.34
29.68
0.89
-20.48
-26.82
-15.31
11.18
45.43
78.91
104.68
119.16
121.96
114.78
100.15
80.72
59.25
38.65
21.77
10.79
6.51
8.01
12.82
17.64
19.43
16.23
7.63
-5.37
-21.03
-37.72
-54.40
-70.78
-86.65
-101.22
-112.62
-118.12
-115.07
-101.98
-79.55
-50.76
-20.30
6.68
25.93
35.29
35.14
28.04
17.65
7.35
-0.84
-6.54
-10.57
-13.96
-17.27
-20.43
-23.24
-25.93
-29.34
-34.49
-41.94
-51.41
-62.08
-73.26
-84.81
-96.92
-109.20
-119.87
-125.56
-122.41
-107.90
-82.32
-49.29
-14.69
15.46
36.99
48.75
52.36
51.04
48.17
46.38
47.24
51.52
59.37
70.37
83.35
96.37
107.03
113.17
113.65
108.79
100.19
89.92
79.59
69.73
59.84
49.11
37.34
25.57
16.07
11.55
14.08
24.17
40.35
59.52
77.81
91.62
98.55
97.78
90.05
77.21
61.66
45.76
31.37
19.71
11.26
5.84
2.78
1.04
-0.52
-2.86
-6.55
-11.66
-17.83
-24.57
-31.66
-39.27
-47.92
-57.85
-68.48
-77.96
-83.43
-81.93
-71.58
-52.54
-27.27
0.15
25.30
44.60
56.17
59.85
56.88
49.21
39.01
28.33
18.84
11.69
7.35
5.68
6.01
7.38
8.78
9.34
8.44
5.75
1.16
-5.34
-13.72
-23.85
-35.22
-46.60
-55.76
-59.85
-56.18
-43.33
-21.98
5.02
33.39
58.69
77.63
88.74
92.36
90.10
84.10
76.49
69.05
63.15
59.59
58.50
59.37
61.16
62.54
62.36
59.93
55.19
48.57
40.78
32.35
23.43
13.76
3.04
-8.58
-20.03
-29.21
-33.40
-30.16
-18.45
0.68
24.06
47.18
65.48
75.70
76.58
68.93
55.05
37.78
19.83
3.16
-11.05
-22.42
-31.19
-38.09
-44.10
-50.14
-56.83
-64.27
-72.04
-79.43
-85.80
-90.90
-95.15
-99.56
-105.37
-113.36
-123.20
-133.09
-139.95
-140.40
-132.02
-114.44
-89.79
-62.10
-35.99
-15.15
-1.32
5.88
8.29
8.22
7.63
7.70
8.94
11.39
14.85
18.89
22.86
25.92
27.19
26.12
22.59
17.01
9.92
1.74
-7.56
-18.23
-30.32
-43.06
-54.59
-62.07
-62.55
-53.99
-36.22
-11.31
16.88
43.80
65.38
79.11
84.41
82.42
75.36
65.89
56.41
48.73
43.92
42.29
43.54
46.81
50.78
53.83
54.34
51.07
43.56
32.26
18.29
2.91
-13.03
-29.32
-45.98
-62.52
-77.31
-87.61
-90.43
-83.79
-68.00
-45.82
-21.77
-0.62
14.03
20.69
19.87
13.51
4.11
-6.04
-15.14
-22.01
-25.99
-26.98
-25.37
-22.03
-18.14
-14.95
-13.46
-14.12
-16.83
-21.02
-26.09
-31.82
-38.55
-46.91
-57.16
-68.47
-78.57
-84.18
-82.12
-70.73
-50.79
-25.52
0.41
22.38
37.18
43.72
42.84
36.56
27.22
16.88
7.09
-1.10
-7.02
-10.40
-11.35
-10.45
-8.69
-7.21
-7.07
-8.90
-12.86
-18.69
-25.93
-34.18
-43.13
-52.23
-60.44
-65.93
-66.30
-59.33
-43.91
-20.77
7.39
36.54
62.47
82.02
93.67
97.61
95.18
88.29
78.85
68.56
58.90
50.99
45.48
42.32
40.75
39.57
37.54
33.87
28.49
21.98
15.20
8.80
2.85
-3.36
-11.07
-21.54
-35.31
-51.54
-67.74
-80.12
-84.72
-78.84
-62.31
-37.84
-10.36
14.64
32.79
42.07
42.95
37.65
29.13
19.98
12.06
6.38
3.20
2.16
2.35
2.51
1.62
-0.63
-3.54
-5.72
-5.85
-3.66
-0.45
1.18
-1.86
-11.90
-29.48
-52.96
-78.67
-101.69
-116.95
-120.50
-110.52
-87.99
-56.58
-21.72
11.05
37.50
55.62
65.60
68.98
67.69
63.37
57.16
49.93
42.56
35.88
30.48
26.42
23.20
19.91
15.70
10.14
3.35
-4.09
-11.52
-18.65
-25.82
-33.92
-43.89
-55.87
-68.41
-78.42
-81.93
-75.58
-58.15
-31.40
0.33
31.58
57.57
75.50
84.85
86.86
83.45
76.45
67.35
57.42
47.96
40.20
35.00
32.41
31.52
30.70
28.26
23.12
15.22
5.54
-4.44
-13.39
-20.67
-26.72
-32.88
-40.88
-52.05
-66.51
-82.60
-97.03
-105.61
-104.65
-92.30
-69.47
-39.60
-7.61
21.66
44.80
60.49
69.18
72.32
71.45
67.79
62.27
55.82
49.61
44.87
42.44
42.31
43.42
44.01
42.24
36.99
28.29
17.26
5.64
-5.01
-13.80
-20.81
-26.80
-32.93
-40.31
-49.68
-61.09
-73.70
-85.59
-94.03
-95.98
-89.14
-72.81
-48.45
-19.45
9.87
35.55
55.05
67.57
73.80
75.10
72.89
68.26
62.12
55.42
49.30
44.93
43.15
44.04
46.75
49.71
51.15
49.65
44.62
36.45
26.21
15.30
4.88
-4.41
-12.58
-20.11
-27.77
-36.36
-46.53
-58.52
-71.89
-85.23
-96.07
-101.30
-98.04
-84.75
-62.13
-33.17
-2.37
25.64
47.42
61.47
68.10
68.64
64.72
57.79
49.14
40.16
32.38
27.19
25.36
26.57
29.40
31.80
31.82
28.41
21.69
12.84
3.47
-4.97
-11.78
-17.10
-21.80
-27.12
-34.26
-43.99
-56.21
-69.70
-82.03
-90.02
-90.54
-81.65
-63.48
-38.41
-10.46
15.97
37.36
51.89
59.46
61.14
58.42
52.73
45.32
37.46
30.52
25.81
24.19
25.60
28.95
32.39
33.94
32.24
27.05
19.25
10.47
2.38
-3.93
-8.35
-11.66
-15.26
-20.65
-28.93
-40.38
-54.07
-67.85
-78.64
-83.15
-78.88
-65.10
-43.27
-16.74
10.19
33.58
50.85
61.17
65.14
64.13
59.58
52.77
44.79
36.80
30.09
25.80
24.54
25.99
28.90
31.42
31.83
29.12
23.41
15.74
7.59
0.26
-5.63
-10.25
-14.43
-19.34
-26.09
-35.31
-46.83
-59.43
-70.84
-78.10
-78.45
-70.26
-53.75
-31.17
-6.16
17.35
36.24
48.89
55.16
55.89
52.33
45.79
37.56
29.04
21.75
17.00
15.47
16.88
19.93
22.75
23.60
21.43
16.27
9.06
1.23
-5.92
-11.67
-16.11
-19.97
-24.34
-30.31
-38.53
-48.85
-60.14
-70.31
-76.68
-76.73
-68.96
-53.47
-32.20
-8.41
14.30
32.96
45.90
52.78
54.18
51.13
44.78
36.37
27.41
19.55
14.30
12.47
13.83
17.10
20.32
21.60
19.82
14.94
7.93
0.26
-6.67
-12.06
-15.90
-18.98
-22.49
-27.64
-35.25
-45.26
-56.57
-67.02
-73.76
-74.09
-66.30
-50.46
-28.60
-4.19
18.84
37.28
49.29
54.58
53.97
48.85
40.79
31.45
22.55
15.79
12.47
13.03
16.81
22.13
26.85
29.10
27.97
23.60
17.04
9.67
2.70
-3.24
-8.19
-12.72
-17.77
-24.30
-32.98
-43.71
-55.35
-65.59
-71.51
-70.41
-60.89
-43.57
-21.02
2.94
24.52
40.98
51.12
55.09
53.92
48.95
41.51
33.03
25.01
18.93
15.85
16.06
18.87
22.70
25.64
26.11
23.44
18.03
11.14
4.33
-1.19
-5.04
-7.76
-10.55
-14.79
-21.48
-30.75
-41.74
-52.53
-60.58
-63.29
-58.79
-46.55
-27.76
-5.09
17.91
37.86
52.24
59.92
61.01
56.55
48.14
37.61
26.92
17.90
11.99
9.77
10.80
13.67
16.50
17.63
16.14
12.09
6.37
0.14
-5.59
-10.35
-14.25
-17.91
-22.19
-27.90
-35.40
-44.21
-52.84
-58.94
-59.90
-53.84
-40.36
-20.98
1.23
22.54
39.65
50.51
54.59
52.66
46.28
37.31
27.61
18.83
12.23
8.49
7.51
8.47
10.08
10.97
10.10
7.07
2.03
-4.39
-11.50
-18.78
-26.21
-34.18
-43.25
-53.49
-64.03
-72.79
-76.97
-74.09
-63.02
-44.74
-22.12
0.96
20.90
35.27
43.16
44.90
41.56
34.54
25.43
15.98
7.93
2.79
1.37
3.55
8.41
14.38
19.67
22.61
21.95
17.09
8.25
-3.47
-16.41
-28.87
-39.62
-48.17
-54.62
-59.16
-61.80
-62.20
-59.90
-54.64
-46.55
-36.18
-24.43
-12.47
-1.68
6.46
10.66
10.32
5.84
-1.23
-8.76
-14.80
-18.41
-19.94
-20.58
-21.56
-23.48
-26.03
-28.26
-29.22
-28.37
-25.86
-22.37
-19.04
-17.31
-18.93
-25.76
-39.02
-58.44
-81.52
-103.71
-119.62
-124.88
-117.84
-100.10
-75.71
-49.33
-24.45
-2.46
17.13
35.73
54.60
74.27
94.50
114.52
133.14
148.82
159.79
164.51
162.34
154.08
141.93
128.84
117.48
109.27
103.96
99.92
94.83
86.57
74.00
57.41
38.62
20.47
6.04
-2.46
-4.54
-1.54
3.88
8.95
11.87
12.39
11.42
10.11
8.74
6.09
-0.25
-12.81
-32.70
-58.57
-86.44
-110.58
-125.48
-127.66
-117.04
-96.92
-72.69
-49.84
-32.14
-20.81
-14.95
-12.87
-13.33
-16.05
-21.22
-28.53
-36.41
-42.26
-43.29
-37.67
-25.36
-7.90
12.11
31.83
48.72
60.76
66.67
66.08
60.14
51.39
43.47
40.02
43.24
53.11
67.00
80.57
89.26
89.83
81.40
65.48
45.00
22.99
1.57
-18.28
-36.14
-51.36
-62.80
-69.52
-71.82
-71.92
-73.08
-77.85
-86.24
-95.35
-100.98
-100.08
-92.55
-80.93
-68.56
-57.44
-47.31
-36.63
-24.18
-10.14
4.18
17.77
30.73
44.27
59.33
75.57
91.28
104.59
114.88
123.24
131.66
141.48
152.35
162.32
168.86
170.20
165.88
156.68
144.07
129.54
114.31
99.15
84.45
70.29
56.50
42.87
29.37
16.30
4.24
-6.17
-14.52
-20.71
-24.86
-27.10
-27.37
-25.49
-21.40
-15.40
-8.32
-1.48
3.62
5.66
3.78
-2.11
-11.24
-22.03
-32.38
-40.12
-43.56
-41.88
-35.40
-25.41
-13.73
-2.31
7.30
14.06
17.57
17.86
15.22
10.07
2.78
-6.11
-15.82
-25.21
-32.82
-37.37
-38.14
-35.42
-30.52
-25.36
-21.95
-21.85
-25.84
-33.84
-44.76
-56.59
-66.54
-71.69
-69.97
-60.95
-46.38
-29.51
-14.11
-3.04
2.39
2.24
-2.63
-11.52
-24.03
-39.82
-57.95
-76.35
-92.04
-101.73
-102.74
-93.76
-75.16
-49.00
-18.51
12.35
39.61
59.67
69.61
67.41
51.99
23.90
-14.21
-57.16
-97.82
-128.79
-144.68
-144.04
-129.75
-107.45
-83.04
-60.22
-39.71
-20.24
-0.41
19.66
38.22
52.92
62.36
66.81
67.84
67.20
65.64
62.67
56.96
47.36
33.79
17.46
0.62
-14.17
-24.75
-29.62
-28.21
-20.47
-6.89
11.58
33.28
55.75
76.08
91.44
99.95
101.22
96.31
87.27
76.18
64.62
53.36
42.43
31.41
19.43
5.33
-12.04
-33.30
-57.78
-83.29
-106.31
-123.11
-130.94
-129.12
-119.37
-105.21
-91.04
-80.76
-76.67
-78.98
-85.81
-94.04
-100.40
-102.74
-100.57
-94.88
-87.43
-79.91
-73.36
-68.19
-64.57
-62.76
-63.11
-65.88
-70.70
-76.45
-81.45
-83.92
-82.61
-77.23
-68.55
-58.39
-49.16
-43.54
-43.78
-50.97
-64.48
-81.67
-98.48
-110.48
-114.36
-109.01
-95.76
-77.78
-58.82
-42.24
-30.33
-24.27
-24.43
-30.50
-41.52
-55.78
-70.98
-84.59
-94.31
-98.53
-96.56
-88.72
-76.31
-61.40
-46.58
-34.41
-26.97
-25.24
-28.80
-35.71
-42.63
-45.44
-40.08
-23.81
3.68
39.77
79.33
116.23
145.25
163.61
171.48
171.20
165.90
158.20
149.62
140.74
131.84
123.33
115.88
110.08
106.03
103.26
100.85
97.72
92.78
84.92
72.96
55.99
33.91
8.19
-17.79
-39.15
-50.76
-49.00
-33.07
-5.47
28.82
63.80
94.13
116.19
128.41
130.93
125.18
113.32
98.01
82.09
68.17
58.15
52.78
51.55
52.91
54.76
55.13
52.50
46.06
35.49
20.87
2.50
-18.87
-41.69
-63.35
-80.30
-88.79
-85.96
-71.04
-45.92
-14.79
16.98
44.40
64.08
74.76
77.10
72.95
64.60
54.21
43.62
34.27
27.12
22.61
20.54
20.16
20.35
19.95
18.08
14.29
8.51
0.79
-8.93
-20.94
-35.33
-51.44
-67.32
-79.61
-84.31
-78.17
-60.10
-31.97
1.73
35.26
63.40
82.95
93.16
95.24
91.45
84.12
75.21
66.27
58.53
52.96
50.10
49.88
51.53
53.85
55.50
55.48
53.26
48.78
42.16
33.35
22.13
8.36
-7.48
-23.72
-37.36
-44.71
-42.52
-29.35
-6.38
22.68
52.70
78.66
96.97
106.18
106.80
100.64
90.04
77.37
64.72
53.74
45.47
40.18
37.31
35.65
33.81
30.65
25.66
19.03
11.40
3.44
-4.51
-12.66
-21.78
-32.87
-46.59
-62.60
-79.12
-92.95
-100.16
-97.46
-83.49
-59.56
-29.53
1.43
28.41
48.10
59.31
62.70
60.00
53.22
44.23
34.66
25.97
19.27
15.17
13.60
13.85
14.77
15.21
14.39
12.02
8.26
3.45
-2.24
-9.00
-17.41
-28.09
-41.07
-55.25
-68.18
-76.58
-77.34
-68.84
-51.72
-28.88
-4.57
16.97
32.72
41.39
43.29
39.69
32.23
22.51
11.98
2.00
-6.31
-12.12
-15.15
-15.73
-14.67
-13.00
-11.73
-11.60
-13.07
-16.49
-22.24
-30.65
-41.77
-54.84
-67.96
-78.23
-82.48
-78.39
-65.41
-45.26
-21.37
2.18
21.87
35.67
43.19
45.24
43.20
38.42
32.10
25.25
18.86
13.83
10.78
9.82
10.47
11.74
12.48
11.73
8.85
3.52
-4.38
-14.79
-27.33
-40.81
-53.08
-61.18
-62.11
-53.93
-36.65
-12.58
14.31
39.52
59.35
71.72
76.34
74.32
67.46
57.81
47.21
37.25
29.09
23.44
20.44
19.69
20.44
21.74
22.72
22.67
21.05
17.39
11.23
2.22
-9.58
-23.37
-37.36
-48.90
-55.04
-53.53
-43.63
-26.51
-5.01
17.20
36.64
50.81
58.54
59.89
55.86
48.01
38.16
28.07
19.21
12.41
7.73
4.55
1.84
-1.47
-6.07
-12.10
-19.16
-26.48
-33.35
-39.51
-45.44
-52.28
-61.23
-72.74
-85.73
-97.53
-104.48
-103.32
-92.46
-72.77
-47.35
-20.47
3.73
22.27
33.74
38.14
36.49
30.43
21.96
13.08
5.61
0.70
-1.32
-1.06
0.32
1.50
1.45
-0.27
-3.57
-7.98
-12.95
-18.10
-23.48
-29.59
-37.20
-46.83
-58.25
-69.99
-79.39
-83.29
-79.05
-65.68
-44.35
-18.23
8.44
31.60
48.30
57.26
58.83
54.49
46.38
36.77
27.72
20.74
16.58
15.21
15.89
17.42
18.49
18.04
15.54
11.03
5.03
-1.76
-8.83
-16.16
-24.26
-33.91
-45.50
-58.42
-70.68
-79.24
-80.92
-73.63
-57.35
-34.38
-8.68
15.33
34.02
45.39
49.16
46.37
38.74
28.24
16.80
6.22
-1.99
-6.83
-8.10
-6.42
-3.06
0.51
3.11
4.15
3.69
2.24
0.46
-1.23
-2.81
-4.65
-7.17
-10.34
-13.24
-13.99
-10.04
0.95
20.24
47.27
79.59
113.40
144.51
169.34
185.62
192.67
191.42
184.03
173.55
163.32
156.15
153.73
156.02
161.36
166.99
170.04
168.46
161.67
150.54
136.89
122.68
109.21
96.55
83.39
67.45
46.40
18.96
-14.01
-49.33
-82.12
-107.34
-121.52
-124.11
-117.76
-107.51
-99.06
-97.03
-103.66
-118.53
-139.22
-162.41
-185.09
-205.19
-221.61
-233.72
-240.91
-242.49
-238.00
-227.87
-213.77
-198.28
-184.02
-172.68
-164.32
-157.59
-150.67
-142.35
-132.81
-123.45
-115.90
-110.69
-106.40
-99.79
-87.02
-65.46
-35.13
0.90
37.41
68.60
89.88
98.77
95.19
80.94
59.24
34.22
10.61
-6.93
-14.82
-11.74
0.78
18.47
35.80
47.71
51.30
46.50
35.57
21.83
8.22
-3.63
-13.54
-22.21
-30.38
-38.10
-44.48
-47.82
-46.26
-38.57
-24.65
-5.81
15.45
36.11
53.29
64.93
70.10
69.01
62.77
52.98
41.42
29.67
18.99
10.22
3.72
-0.63
-3.26
-4.79
-5.67
-5.96
-5.24
-2.64
2.72
11.31
22.73
35.61
48.00
58.12
65.18
69.91
74.36
80.90
90.92
103.88
117.11
126.87
129.70
123.93
110.17
90.94
69.69
49.69
33.44
22.38
16.95
16.58
19.76
24.26
27.68
28.25
25.44
20.08
13.90
8.60
5.01
2.68
0.03
-4.99
-14.13
-28.12
-45.99
-65.04
-81.11
-89.66
-87.29
-73.20
-49.74
-21.89
4.35
24.04
34.78
37.01
33.13
25.96
17.46
8.22
-2.00
-13.29
-24.60
-33.64
-37.71
-34.85
-25.19
-11.34
2.36
11.30
12.58
6.07
-5.69
-18.80
-30.11
-38.50
-44.89
-50.89
-56.98
-61.46
-61.08
-52.89
-36.28
-13.94
9.08
27.47
38.02
40.72
38.23
34.16
31.26
30.48
31.11
31.79
31.46
29.79
27.07
23.77
20.15
16.25
11.87
6.85
0.94
-6.08
-14.47
-24.30
-35.14
-45.80
-54.43
-58.91
-57.72
-50.49
-38.32
-23.43
-8.53
3.94
12.38
16.21
15.88
12.61
8.16
4.45
3.24
5.50
11.05
18.38
25.13
28.89
28.19
22.94
14.30
3.85
-7.29
-18.91
-31.56
-45.71
-60.98
-75.74
-87.51
-93.89
-93.43
-86.15
-73.42
-57.40
-40.45
-24.71
-11.84
-2.97
1.36
1.34
-2.10
-7.42
-12.92
-17.16
-19.39
-19.70
-18.67
-17.05
-15.39
-13.96
-12.93
-12.70
-13.96
-17.67
-24.59
-34.93
-47.96
-62.04
-74.87
-84.05
-87.70
-84.98
-76.34
-63.44
-48.77
-35.01
-24.44
-18.35
-16.86
-19.02
-23.31
-28.25
-32.88
-37.07
-41.22
-45.76
-50.72
-55.39
-58.86
-60.45
-60.33
-59.68
-60.40
-64.59
-73.68
-87.85
-105.54
-123.49
-137.31
-142.59
-136.23
-117.50
-88.24
-52.33
-14.41
21.33
51.97
75.97
92.84
102.67
105.94
103.56
96.79
87.25
76.62
66.38
57.64
51.07
46.85
44.85
44.61
45.37
46.04
45.36
42.14
35.73
26.66
16.84
9.35
7.38
12.88
25.61
42.93
60.75
74.92
82.77
83.69
79.00
71.08
62.29
54.38
48.19
43.83
41.02
39.35
38.42
37.84
37.10
35.60
32.72
28.01
21.38
13.13
3.76
-6.35
-16.97
-27.99
-38.91
-48.59
-55.23
-57.07
-53.22
-44.47
-33.28
-23.08
-16.92
-16.37
-21.14
-29.37
-38.61
-46.60
-51.65
-52.77
-49.56
-42.22
-31.79
-20.22
-10.01
-3.45
-1.79
-4.86
-11.29
-19.15
-26.67
-32.43
-35.31
-34.07
-27.55
-15.11
2.64
23.42
43.69
59.63
68.50
69.55
64.11
54.96
45.14
36.96
31.40
28.30
26.84
26.17
25.77
25.57
25.60
25.71
25.35
23.60
19.39
11.92
1.17
-11.63
-23.99
-32.46
-33.68
-25.62
-8.57
14.77
40.05
62.97
80.79
93.11
101.41
107.68
113.01
116.79
117.23
112.60
102.37
87.69
70.57
52.77
34.90
16.47
-3.21
-24.16
-45.57
-66.49
-86.78
-107.36
-129.28
-152.15
-173.06
-186.98
-188.80
-175.69
-148.66
-112.11
-71.97
-33.45
0.28
28.00
49.59
65.19
75.13
80.25
82.23
83.19
84.84
87.64
90.52
91.60
89.23
82.96
73.88
64.08
55.77
50.02
46.02
40.94
30.78
12.08
-16.24
-51.49
-87.48
-116.33
-131.28
-129.31
-112.24
-85.91
-57.70
-33.57
-15.96
-3.34
8.43
23.74
44.64
69.54
93.54
110.42
115.38
107.18
88.72
65.67
44.05
27.84
18.02
13.09
10.71
9.04
7.30
5.37
3.13
0.19
-3.70
-7.94
-10.60
-8.96
-0.67
14.96
36.18
59.18
79.31
92.71
97.54
94.35
85.54
74.33
63.57
54.95
48.81
44.39
40.35
35.34
28.42
19.22
7.90
-4.95
-18.51
-31.88
-44.29
-55.35
-65.34
-75.17
-86.10
-99.00
-113.37
-127.03
-136.37
-137.60
-128.40
-109.10
-82.80
-54.36
-28.55
-8.49
5.06
13.34
18.47
22.39
26.18
30.09
33.80
36.88
39.00
40.05
40.10
39.32
37.89
35.93
33.35
29.97
25.50
19.68
12.17
2.62
-9.20
-22.98
-37.51
-50.43
-58.80
-60.10
-53.31
-39.37
-20.76
-0.29
20.15
40.07
59.92
80.07
99.97
118.14
132.89
143.36
149.96
154.08
157.19
160.01
162.18
162.77
161.03
157.02
151.60
145.86
140.33
134.34
126.06
113.03
93.05
65.12
29.91
-10.05
-50.76
-87.34
-114.99
-130.11
-131.24
-119.69
-99.53
-76.48
-56.24
-42.81
-37.41
-38.59
-43.33
-48.56
-52.28
-53.93
-53.88
-52.63
-50.28
-46.60
-41.51
-35.59
-30.13
-26.74
-26.66
-30.10
-36.10
-43.03
-49.13
-53.33
-55.47
-56.28
-56.97
-58.80
-62.80
-69.57
-79.12
-90.58
-101.97
-110.35
-112.40
-105.43
-88.50
-62.94
-32.07
-0.16
29.00
53.06
71.54
85.35
96.01
105.03
113.31
121.11
128.14
133.77
137.26
137.92
135.17
128.64
118.35
104.95
89.96
75.52
63.83
56.24
52.54
51.08
49.55
46.01
39.60
30.40
18.87
5.53
-9.02
-23.22
-34.32
-38.80
-33.88
-19.20
2.53
26.18
46.37
59.47
64.73
63.99
60.11
55.60
51.64
48.38
45.64
43.64
43.07
44.54
47.91
51.81
54.01
52.32
45.74
35.04
22.46
10.77
2.03
-3.22
-5.85
-7.66
-10.44
-15.33
-22.50
-31.01
-39.07
-44.28
-44.20
-37.10
-22.43
-1.29
23.95
50.24
74.65
95.00
109.78
117.96
118.76
111.92
98.17
79.62
59.61
41.78
28.74
21.00
16.69
12.29
3.98
-10.96
-33.36
-62.02
-94.35
-127.04
-156.95
-181.84
-200.94
-215.06
-226.14
-236.24
-246.29
-255.31
-260.34
-257.52
-243.52
-217.30
-180.77
-138.53
-96.38
-59.52
-31.01
-11.19
1.81
10.62
17.35
22.63
25.89
26.28
23.77
19.58
15.65
13.50
13.26
13.54
12.19
7.58
-0.37
-10.03
-18.81
-24.47
-26.19
-24.94
-23.04
-23.21
-27.48
-36.41
-48.85
-62.18
-73.02
-78.07
-75.11
-63.56
-44.64
-20.94
4.43
28.60
49.49
65.83
76.94
82.48
82.50
77.59
69.03
58.80
49.01
41.38
36.56
33.97
32.12
29.26
24.06
16.13
6.01
-5.19
-16.36
-26.84
-36.58
-46.02
-55.74
-66.26
-77.79
-90.24
-103.09
-115.28
-125.20
-130.96
-130.91
-124.35
-111.80
-94.81
-75.14
-53.91
-31.22
-6.76
19.02
43.89
63.93
74.77
73.55
60.26
37.82
10.78
-16.70
-42.24
-65.51
-87.38
-108.65
-129.23
-148.17
-164.43
-177.48
-187.42
-194.30
-197.44
-195.17
-185.57
-167.80
-143.18
-115.50
-89.74
-70.26
-58.82
-53.77
-50.87
-45.14
-33.02
-13.51
11.72
39.56
66.74
90.87
110.81
126.40
138.06
146.34
151.88
155.29
157.22
158.23
158.64
158.33
156.74
153.15
147.08
138.73
128.97
119.19
110.52
103.29
96.73
89.16
78.82
64.58
46.48
25.72
4.28
-15.56
-31.51
-41.51
-43.87
-37.59
-22.69
-0.37
27.16
57.18
87.17
115.22
140.06
160.76
176.33
185.73
188.35
184.53
176.02
165.68
156.61
151.01
149.25
149.76
149.66
146.01
136.95
122.31
103.32
81.83
59.50
37.29
15.50
-5.98
-27.45
-49.39
-72.41
-96.89
-122.40
-147.20
-168.25
-182.07
-186.10
-179.91
-165.44
-146.18
-125.78
-106.75
-90.03
-75.47
-62.81
-52.26
-44.45
-39.72
-37.37
-35.60
-32.15
-25.59
-16.41
-7.16
-1.56
-2.87
-12.37
-28.65
-48.19
-66.66
-80.70
-88.89
-92.04
-92.59
-93.49
-97.11
-104.37
-114.28
-123.98
-129.47
-126.77
-113.22
-88.47
-54.66
-15.92
22.90
57.38
84.40
102.37
111.14
111.68
105.80
95.98
84.92
75.08
68.08
64.35
63.23
63.42
63.61
63.05
61.73
60.11
58.78
57.99
57.41
56.16
52.97
46.58
36.34
22.76
7.91
-4.74
-11.11
-7.86
6.23
29.57
58.00
86.17
109.22
124.25
130.83
130.45
125.53
118.19
109.80
100.87
91.42
81.40
70.84
59.90
48.78
37.58
26.35
15.14
4.05
-6.72
-17.01
-26.79
-36.32
-46.27
-57.47
-70.52
-85.09
-99.42
-110.32
-113.91
-107.00
-88.46
-60.02
-25.98
8.03
36.74
56.68
66.80
68.19
63.17
54.30
43.75
33.00
22.94
14.03
6.40
-0.10
-5.93
-11.77
-18.34
-26.14
-35.29
-45.50
-56.31
-67.39
-78.86
-91.16
-104.54
-118.30
-130.32
-137.23
-135.46
-122.85
-99.81
-69.65
-37.61
-9.05
12.32
25.33
31.14
32.19
30.87
28.84
26.91
25.47
24.93
25.77
28.30
32.33
37.05
41.20
43.58
43.47
40.80
35.98
29.60
22.04
13.60
4.70
-3.70
-10.06
-12.56
-9.83
-1.61
10.91
25.36
38.93
49.15
54.39
53.91
47.56
35.41
17.65
-5.19
-32.07
-61.19
-90.21
-116.63
-138.37
-154.21
-163.93
-168.17
-168.23
-165.76
-162.54
-160.38
-160.88
-164.98
-172.53
-182.00
-190.63
-195.06
-192.17
-179.96
-158.01
-127.55
-91.18
-52.39
-14.98
17.60
42.79
59.46
67.96
69.81
67.01
61.36
54.02
45.57
36.33
26.65
16.95
7.44
-2.11
-12.47
-24.63
-39.27
-56.25
-74.16
-90.36
-101.31
-103.41
-94.08
-72.72
-41.25
-3.95
33.65
66.11
89.52
102.12
104.35
98.05
85.76
70.00
53.09
37.15
24.09
15.37
11.70
12.73
17.13
22.81
27.48
29.21
26.74
19.67
8.39
-5.86
-21.08
-34.50
-43.03
-43.91
-35.61
-18.59
4.62
29.98
53.12
70.49
80.18
81.97
76.95
66.89
53.79
39.70
26.64
16.48
10.65
9.81
13.50
20.24
27.70
33.30
34.77
30.50
19.93
3.66
-16.52
-37.66
-56.08
-68.06
-70.76
-63.19
-46.65
-24.55
-1.46
18.22
31.43
37.06
35.86
29.75
21.07
11.94
4.06
-1.37
-3.62
-2.52
1.45
7.16
13.06
17.57
19.35
17.57
11.83
2.17
-10.75
-25.32
-38.81
-47.65
-48.37
-38.88
-19.53
6.67
34.95
60.37
79.38
90.59
94.60
93.12
87.92
80.27
70.96
60.64
50.21
40.80
33.50
28.90
26.84
26.36
25.99
24.28
20.07
12.71
2.10
-11.35
-26.49
-41.35
-53.17
-58.87
-55.96
-43.61
-23.21
1.74
26.68
47.37
61.04
66.93
65.94
59.86
50.63
39.87
28.91
18.89
10.84
5.46
2.92
2.64
3.38
3.60
1.82
-2.99
-11.35
-23.26
-38.11
-54.53
-70.17
-81.84
-86.21
-80.88
-65.36
-41.64
-13.63
13.96
37.07
53.31
62.20
64.74
62.63
57.67
51.42
45.21
40.20
37.25
36.74
38.44
41.44
44.41
45.96
44.92
40.59
32.65
21.15
6.47
-10.36
-27.41
-41.77
-50.13
-49.76
-39.74
-21.56
1.11
23.55
41.52
52.44
55.82
52.81
45.35
35.41
24.64
14.24
5.16
-1.95
-6.83
-9.73
-11.27
-12.32
-13.64
-15.71
-18.66
-22.54
-27.46
-33.73
-41.63
-50.90
-60.35
-67.66
-69.93
-64.65
-50.87
-29.80
-4.66
20.27
41.07
55.21
62.04
62.49
58.40
51.75
44.23
37.12
31.31
27.34
25.33
24.97
25.48
25.91
25.29
23.06
19.07
13.59
6.94
-0.79
-9.81
-20.31
-31.89
-43.12
-51.58
-54.48
-49.83
-37.40
-19.10
1.52
20.40
34.30
41.62
42.56
38.61
31.82
24.10
16.85
10.95
6.80
4.46
3.68
3.89
4.32
4.11
2.58
-0.56
-5.19
-10.95
-17.55
-25.06
-33.77
-43.68
-53.91
-62.43
-66.43
-63.31
-51.98
-33.56
-11.27
10.64
28.30
39.35
43.35
41.37
35.26
26.93
17.96
9.60
2.77
-1.89
-4.11
-4.17
-2.79
-1.09
-0.15
-0.79
-3.50
-8.41
-15.53
-24.71
-35.53
-46.97
-57.14
-63.48
-63.37
-55.09
-38.76
-16.59
7.62
29.61
46.02
55.21
57.48
54.45
48.19
40.51
32.61
25.20
18.74
13.63
10.18
8.44
8.05
8.24
8.03
6.54
3.21
-2.14
-9.51
-18.79
-29.62
-41.15
-51.64
-58.63
-59.47
-52.40
-37.49
-16.96
5.37
25.33
39.77
47.37
48.67
45.41
39.59
32.84
26.19
20.27
15.53
12.31
10.78
10.76
11.67
12.61
12.69
11.24
7.89
2.53
-4.90
-14.42
-25.77
-38.07
-49.46
-57.32
-58.93
-52.55
-38.34
-18.59
2.92
22.15
36.11
43.60
45.11
42.18
36.57
29.74
22.73
16.30
11.09
7.64
6.16
6.34
7.43
8.35
8.11
6.04
1.91
-4.23
-12.25
-21.97
-32.99
-44.23
-53.74
-58.87
-57.11
-47.13
-29.67
-7.61
14.85
33.61
45.93
51.10
50.22
45.32
38.48
31.26
24.64
19.23
15.46
13.66
13.90
15.79
18.48
20.81
21.56
19.76
14.81
6.59
-4.47
-17.34
-30.28
-40.93
-46.69
-45.50
-36.54
-20.85
-1.13
18.98
36.06
47.79
53.43
53.54
49.42
42.51
34.11
25.35
17.39
11.29
7.78
6.98
8.21
10.19
11.46
10.85
7.76
2.14
-5.78
-15.54
-26.42
-37.24
-46.09
-50.66
-48.88
-39.83
-24.35
-5.12
14.19
30.04
40.09
43.66
41.57
35.46
27.11
18.03
9.37
1.99
-3.43
-6.47
-7.13
-5.92
-3.82
-2.01
-1.58
-3.24
-7.29
-13.74
-22.36
-32.60
-43.39
-52.96
-59.01
-59.35
-52.67
-39.34
-21.45
-2.29
14.66
26.78
32.90
33.28
29.11
22.04
13.67
5.41
-1.54
-6.33
-8.47
-8.06
-5.73
-2.54
0.30
1.69
0.83
-2.69
-8.95
-17.67
-28.11
-38.95
-48.26
-53.77
-53.48
-46.38
-32.99
-15.44
3.10
19.32
30.74
36.19
35.94
31.21
23.63
14.85
6.25
-1.04
-6.21
-8.79
-8.82
-6.82
-3.79
-0.92
0.67
0.11
-3.16
-9.32
-18.19
-29.09
-40.60
-50.60
-56.61
-56.40
-48.91
-34.79
-16.35
3.03
19.95
31.90
37.82
37.97
33.55
26.07
17.05
7.85
-0.25
-6.18
-9.24
-9.32
-7.01
-3.49
-0.13
1.81
1.49
-1.55
-7.51
-16.28
-27.34
-39.33
-50.01
-56.56
-56.45
-48.45
-33.27
-13.56
7.01
24.83
37.45
43.94
44.77
41.20
34.73
26.76
18.51
11.10
5.45
2.20
1.45
2.75
5.11
7.32
8.19
6.83
2.72
-4.30
-14.02
-25.73
-38.01
-48.72
-55.28
-55.43
-48.05
-33.82
-15.22
4.19
20.88
32.37
37.72
37.44
32.93
25.82
17.55
9.27
1.82
-4.08
-7.97
-9.72
-9.69
-8.70
-7.89
-8.34
-10.83
-15.68
-22.84
-31.93
-42.20
-52.36
-60.46
-64.08
-61.06
-50.39
-32.90
-11.29
10.62
29.07
41.57
47.38
47.34
43.12
36.53
29.09
21.90
15.81
11.47
9.24
9.03
10.22
11.75
12.43
11.29
7.80
1.87
-6.33
-16.48
-28.05
-40.05
-50.76
-57.76
-58.60
-51.66
-37.06
-16.98
4.89
24.48
38.66
45.99
46.84
42.82
35.93
27.99
20.31
13.71
8.74
5.67
4.49
4.84
5.97
6.96
6.91
5.25
1.75
-3.51
-10.44
-19.01
-29.06
-39.96
-50.19
-57.40
-58.91
-52.83
-38.94
-19.15
3.03
23.50
38.95
47.67
49.81
46.88
40.98
34.13
27.86
23.11
20.24
19.17
19.46
20.42
21.29
21.38
20.15
17.33
12.91
7.05
-0.05
-8.26
-17.57
-27.75
-38.04
-46.88
-51.94
-50.86
-42.15
-26.03
-4.72
18.12
38.56
53.56
61.74
63.40
60.04
53.60
46.03
38.92
33.47
30.35
29.58
30.50
31.94
32.63
31.57
28.37
23.28
16.94
10.16
3.53
-2.76
-9.01
-15.88
-24.03
-33.57
-43.58
-51.97
-55.97
-53.14
-42.43
-24.90
-3.53
17.68
35.04
46.19
50.46
48.68
42.48
33.81
24.54
16.31
10.35
7.25
6.76
7.80
8.83
8.37
5.56
0.43
-6.24
-13.37
-19.98
-25.67
-30.62
-35.60
-41.63
-49.46
-59.12
-69.39
-77.88
-81.48
-77.46
-64.63
-44.07
-19.04
5.96
26.62
40.14
45.76
44.63
38.95
31.19
23.41
17.04
12.85
10.99
11.12
12.47
14.08
15.02
14.62
12.58
8.99
4.18
-1.48
-7.76
-14.71
-22.59
-31.60
-41.34
-50.49
-56.76
-57.50
-50.70
-35.98
-15.05
8.66
31.11
48.85
60.06
64.58
63.59
58.91
52.40
45.68
40.08
36.50
35.22
35.81
37.13
37.71
36.33
32.46
26.49
19.46
12.54
6.47
1.27
-3.73
-9.67
-17.58
-27.90
-39.98
-51.89
-60.68
-63.29
-57.57
-43.29
-22.42
1.44
24.24
42.78
55.46
62.30
64.32
62.81
58.87
53.38
47.27
41.62
37.53
35.76
36.26
38.15
39.87
39.79
36.88
31.12
23.40
15.22
7.95
2.29
-1.86
-5.35
-9.36
-14.92
-22.59
-32.09
-42.21
-50.77
-55.11
-52.75
-42.34
-24.39
-1.30
23.26
45.55
62.81
73.87
78.99
79.21
75.73
69.61
61.85
53.58
46.03
40.32
36.85
35.09
33.66
30.79
25.06
15.99
4.15
-9.08
-22.09
-33.66
-43.30
-51.29
-58.43
-65.74
-74.09
-83.84
-94.54
-104.73
-112.17
-114.31
-109.21
-96.39
-77.18
-54.45
-31.72
-12.08
2.56
11.62
15.51
15.14
11.63
6.22
0.36
-4.41
-6.78
-6.20
-3.15
0.91
4.07
4.75
2.34
-2.68
-8.94
-14.89
-19.44
-22.34
-24.15
-26.01
-29.19
-34.71
-42.96
-53.35
-64.08
-72.34
-74.93
-69.37
-54.97
-33.38
-8.17
16.41
36.82
51.23
59.63
63.13
63.11
60.68
56.65
51.91
47.64
45.21
45.58
48.79
53.77
58.60
61.32
60.63
56.45
49.81
42.33
35.59
30.45
26.85
23.95
20.47
15.20
7.26
-3.68
-17.11
-31.56
-44.63
-53.35
-55.14
-48.72
-34.93
-16.55
2.59
18.89
30.24
36.30
38.07
37.00
34.28
30.54
26.18
21.82
18.42
17.00
18.15
21.54
25.85
29.20
29.84
26.92
20.75
12.66
4.44
-2.47
-7.45
-10.86
-13.74
-17.35
-22.70
-30.35
-40.22
-51.52
-62.63
-71.17
-74.46
-70.31
-57.93
-38.50
-15.04
8.57
28.74
43.19
51.26
53.60
51.50
46.35
39.43
32.04
25.57
21.32
20.10
21.87
25.55
29.37
31.45
30.50
26.23
19.49
11.76
4.62
-0.94
-4.77
-7.59
-10.61
-15.12
-21.97
-31.28
-42.22
-53.01
-61.27
-64.58
-61.28
-51.10
-35.41
-16.82
1.54
16.96
27.69
33.10
33.27
28.64
19.72
7.20
-7.84
-23.85
-39.08
-52.08
-62.30
-70.40
-77.92
-86.51
-97.08
-109.30
-121.78
-132.79
-141.12
-146.63
-150.27
-153.61
-158.27
-165.33
-174.74
-185.13
-193.68
-196.49
-189.30
-168.73
-133.55
-85.54
-29.62
27.05
76.69
112.76
131.52
132.74
119.45
96.93
71.28
48.09
31.72
25.17
30.44
48.66
79.64
121.06
167.94
212.94
248.03
266.78
266.24
247.59
214.99
173.15
125.24
72.02
13.30
-49.62
-111.96
-165.93
-203.73
-221.31
-220.67
-209.09
-195.32
-185.22
-179.17
-172.67
-159.71
-136.69
-104.44
-67.67
-32.71
-5.19
11.13
14.60
5.52
-13.71
-38.29
-61.72
-77.32
-80.20
-68.73
-44.53
-11.32
26.46
64.21
97.11
120.04
128.57
121.18
101.07
75.85
54.38
42.33
38.98
37.94
31.33
15.01
-8.27
-29.89
-40.06
-32.91
-9.04
25.74
64.20
101.15
134.65
164.64
190.41
209.25
216.94
209.93
187.51
152.78
111.67
70.78
35.08
6.46
-16.12
-35.05
-51.97
-66.43
-75.87
-77.19
-68.86
-52.35
-32.00
-13.31
-0.47
5.34
6.05
5.31
6.52
11.48
20.27
32.14
46.43
62.75
80.43
97.78
111.89
119.59
118.75
109.53
94.36
76.93
60.57
46.99
36.12
26.94
18.77
12.01
8.15
8.95
15.42
27.12
42.13
57.63
70.84
79.71
83.25
81.48
74.99
64.80
52.26
39.25
28.16
21.71
22.16
30.45
45.28
62.89
77.84
84.52
79.03
60.66
32.00
-2.16
-36.76
-68.12
-94.59
-115.99
-132.31
-142.98
-146.92
-143.55
-133.79
-120.46
-107.35
-98.03
-94.54
-97.04
-104.09
-113.38
-122.45
-129.12
-131.63
-128.97
-121.23
-109.93
-97.98
-89.14
-86.95
-93.61
-108.95
-130.00
-151.40
-166.73
-170.39
-159.52
-135.19
-102.35
-68.35
-40.72
-24.96
-23.26
-34.49
-55.31
-81.68
-110.08
-137.79
-162.48
-181.53
-191.83
-190.27
-174.54
-144.10
-100.55
-47.48
10.38
68.11
121.33
166.69
201.96
226.14
239.45
243.53
241.26
236.35
232.49
232.01
234.94
238.81
239.61
233.91
221.07
204.41
190.27
185.23
192.61
210.00
229.58
241.07
236.26
212.39
172.72
124.23
73.79
25.58
-19.15
-60.14
-96.07
-124.17
-141.87
-149.26
-150.24
-151.13
-157.65
-171.76
-190.86
-209.48
-222.39
-227.26
-225.11
-219.01
-211.86
-205.02
-198.10
-189.62
-177.97
-161.64
-139.17
-109.10
-70.25
-22.44
32.88
92.40
151.35
204.37
246.52
274.07
285.24
280.48
262.66
236.58
208.03
182.35
162.95
150.51
143.14
137.47
130.18
118.94
102.72
81.43
55.58
26.30
-4.38
-33.55
-58.05
-75.60
-85.62
-89.15
-87.84
-82.54
-72.56
-56.13
-32.05
-1.41
31.74
61.37
81.76
89.83
86.09
73.95
57.69
40.39
23.03
5.02
-14.33
-34.58
-53.89
-69.96
-81.51
-89.17
-95.29
-102.63
-112.79
-125.41
-138.47
-149.38
-156.08
-157.53
-153.59
-144.67
-131.70
-116.33
-101.01
-88.33
-79.98
-75.65
-73.00
-68.66
-60.01
-46.68
-30.69
-15.29
-3.21
4.38
7.72
7.25
2.79
-6.35
-20.30
-37.49
-54.28
-66.05
-68.57
-59.47
-38.91
-9.38
24.54
56.48
78.73
83.65
66.13
26.46
-28.21
-85.00
-129.12
-148.89
-139.62
-104.62
-53.08
3.73
56.10
97.83
126.39
141.79
145.45
139.58
127.09
111.53
96.62
85.42
79.39
77.95
78.60
77.60
71.18
56.76
33.83
4.29
-27.97
-58.03
-81.25
-94.48
-96.76
-89.21
-74.36
-55.16
-34.04
-12.53
8.59
28.61
46.50
60.64
69.29
71.37
67.04
57.90
46.53
35.59
26.92
20.99
16.93
13.02
7.43
-1.25
-13.49
-28.62
-44.66
-58.60
-66.92
-66.71
-56.68
-37.89
-13.57
11.79
33.93
50.04
59.21
62.14
60.19
54.73
46.70
36.93
26.42
16.57
8.96
4.87
4.77
7.99
12.90
17.22
18.65
15.34
6.44
-7.64
-25.00
-42.49
-56.25
-62.77
-59.96
-47.83
-28.58
-5.87
16.32
34.79
47.75
54.76
56.24
52.98
45.87
35.96
24.65
13.74
5.08
0.01
-1.19
0.48
3.03
4.11
1.74
-5.18
-16.60
-31.32
-47.11
-60.99
-69.71
-70.52
-62.15
-45.38
-23.02
0.88
22.36
38.68
48.92
53.61
53.99
51.26
46.21
39.43
31.68
23.99
17.59
13.34
11.43
11.16
11.18
10.03
6.54
0.08
-9.44
-21.67
-35.88
-50.71
-64.05
-73.12
-75.17
-68.38
-52.79
-30.56
-5.40
18.63
38.33
52.16
60.11
63.17
62.56
59.25
54.01
47.55
40.67
34.21
28.83
24.72
21.60
18.80
15.50
11.05
5.12
-2.28
-10.98
-20.86
-32.02
-44.64
-58.50
-72.42
-84.07
-90.35
-88.37
-76.75
-56.39
-30.47
-3.42
20.48
38.44
49.55
54.51
54.85
52.16
47.71
42.54
37.58
33.63
31.22
30.34
30.43
30.55
29.76
27.42
23.42
18.03
11.76
5.06
-1.99
-9.68
-18.68
-29.60
-42.40
-55.92
-67.77
-74.89
-74.61
-65.75
-49.37
-28.45
-6.92
11.69
25.26
33.27
36.40
35.77
32.44
27.24
20.94
14.48
8.79
4.56
1.83
-0.03
-2.09
-5.36
-10.30
-16.69
-23.76
-30.62
-36.71
-42.01
-47.14
-53.15
-61.01
-71.01
-82.21
-92.21
-97.59
-95.05
-82.71
-61.03
-32.89
-2.62
25.51
48.53
65.32
76.21
82.13
83.91
82.08
77.27
70.50
63.34
57.34
53.40
51.30
49.81
47.26
42.44
35.16
26.35
17.52
10.00
4.36
0.16
-3.77
-8.87
-16.44
-27.03
-40.24
-54.41
-66.83
-74.19
-73.60
-63.67
-45.17
-21.07
4.52
27.61
45.55
57.45
63.81
65.71
64.18
60.00
53.96
47.12
40.89
36.60
34.88
35.24
36.16
35.65
32.07
24.86
14.78
3.53
-6.99
-15.52
-21.83
-26.73
-31.52
-37.46
-45.33
-55.27
-66.78
-78.60
-88.81
-94.96
-94.62
-86.20
-69.76
-47.32
-22.35
1.19
20.13
32.83
39.19
40.19
37.22
31.69
25.02
18.72
14.26
12.71
14.26
17.87
21.61
23.28
21.38
15.70
7.40
-1.65
-9.68
-15.85
-20.54
-25.02
-30.80
-39.00
-49.90
-62.91
-76.75
-89.56
-99.30
-104.24
-103.60
-98.20
-90.53
-83.94
-81.15
-82.66
-85.94
-86.02
-77.44
-56.51
-23.09
19.22
64.46
106.55
141.33
167.53
186.35
200.02
210.44
218.15
222.59
222.88
218.85
211.53
202.72
193.83
184.74
173.48
157.07
133.14
101.54
64.93
28.17
-3.39
-25.82
-37.86
-41.00
-38.56
-34.28
-31.17
-30.99
-34.38
-41.30
-51.42
-64.21
-78.71
-93.40
-106.27
-115.36
-119.44
-118.54
-114.05
-108.08
-102.62
-98.73
-96.35
-94.60
-92.53
-89.75
-86.64
-84.23
-83.67
-85.81
-90.94
-98.76
-108.56
-119.28
-129.62
-137.80
-141.69
-139.03
-128.18
-108.81
-82.35
-51.83
-20.87
7.53
32.06
53.48
74.07
96.57
122.80
152.83
184.71
215.13
240.36
257.46
265.07
263.68
255.26
242.22
226.52
209.02
189.68
168.34
145.57
123.14
103.54
88.80
79.29
73.13
66.94
57.52
43.46
26.01
8.34
-6.04
-14.99
-18.59
-18.69
-17.85
-18.33
-21.66
-28.65
-39.34
-52.88
-67.29
-79.74
-87.53
-89.43
-86.45
-81.48
-77.88
-77.69
-80.49
-83.57
-83.38
-77.09
-63.97
-45.59
-25.19
-6.50
7.37
14.74
15.64
11.59
4.92
-2.07
-7.71
-11.30
-12.99
-13.43
-13.64
-14.90
-18.81
-26.95
-40.33
-58.59
-79.60
-99.80
-115.25
-123.14
-122.84
-116.33
-107.54
-101.17
-101.44
-110.97
-130.26
-157.44
-188.40
-217.48
-238.56
-246.93
-241.09
-223.52
-199.87
-176.70
-158.75
-146.87
-138.01
-126.94
-109.10
-83.19
-52.46
-24.03
-6.32
-5.51
-22.50
-51.86
-83.39
-105.89
-111.16
-96.45
-64.11
-19.26
33.04
88.99
145.18
196.96
237.66
260.09
259.36
235.49
193.94
143.79
94.36
52.62
22.00
2.92
-5.97
-6.75
-1.84
6.11
14.38
20.60
23.36
22.36
18.19
11.93
4.55
-3.24
-10.92
-17.98
-23.80
-27.86
-29.83
-29.87
-28.58
-26.77
-25.25
-24.72
-25.80
-29.21
-35.66
-45.39
-57.65
-70.32
-80.12
-83.55
-78.16
-63.52
-41.51
-15.70
9.86
31.78
48.09
58.25
62.80
62.85
59.66
54.55
48.87
43.82
40.37
38.97
39.45
41.07
42.68
43.02
40.92
35.43
26.05
12.86
-3.10
-19.71
-33.98
-42.64
-43.12
-34.48
-17.98
3.29
25.29
44.28
57.77
64.92
66.31
63.21
57.06
49.10
40.43
32.09
25.09
20.22
17.79
17.32
17.73
17.59
15.58
10.80
2.82
-8.36
-22.42
-38.50
-54.95
-69.18
-77.98
-78.33
-68.57
-49.34
-23.54
4.33
29.65
48.98
60.90
65.88
65.68
62.38
57.81
53.31
49.79
47.90
48.08
50.38
54.41
59.26
63.77
66.83
67.78
66.40
62.73
56.82
48.61
38.24
26.53
15.29
7.13
4.68
9.45
21.09
37.29
54.55
69.32
79.02
82.50
79.91
72.22
60.78
47.11
32.80
19.46
8.48
0.66
-3.98
-6.18
-7.20
-8.36
-10.70
-14.85
-21.09
-29.46
-39.81
-51.64
-63.79
-74.31
-80.72
-80.72
-73.03
-58.07
-38.08
-16.48
3.15
18.09
27.06
30.22
28.64
23.85
17.33
10.51
4.61
0.72
-0.45
1.19
5.07
10.03
14.64
17.51
17.56
14.14
7.20
-2.49
-13.12
-21.88
-25.48
-21.16
-7.83
13.26
38.68
63.81
84.34
97.48
102.51
100.49
93.43
83.45
72.33
61.52
52.24
45.65
42.62
43.48
47.75
54.10
60.70
65.59
67.12
64.19
56.33
43.87
28.03
11.04
-4.07
-14.05
-16.44
-10.47
2.48
19.14
35.35
47.34
52.68
50.67
42.05
28.51
12.11
-4.97
-20.62
-33.03
-41.04
-44.57
-44.82
-44.04
-45.05
-50.50
-62.24
-81.16
-107.08
-138.80
-173.98
-208.91
-238.62
-257.54
-260.88
-246.20
-214.71
-171.37
-123.70
-79.78
-45.99
-25.70
-18.94
-23.39
-35.47
-51.66
-68.92
-84.88
-97.79
-106.62
-111.34
-113.15
-114.31
-117.54
-125.03
-137.60
-154.34
-172.86
-190.12
-203.32
-210.53
-210.59
-202.44
-184.43
-154.16
-109.25
-48.97
24.26
104.33
182.43
249.37
298.33
326.64
336.02
330.97
316.68
297.27
275.42
252.87
231.29
212.66
198.87
191.02
188.78
190.52
193.90
196.71
197.43
195.57
191.38
185.57
178.96
172.15
165.37
158.33
150.32
140.49
128.22
113.39
96.57
79.04
62.51
48.72
38.91
33.35
31.13
30.33
28.60
23.93
15.30
2.88
-12.28
-28.79
-45.39
-61.06
-74.70
-84.80
-89.51
-87.05
-76.48
-58.47
-35.36
-10.70
11.71
28.75
38.33
39.31
31.46
15.71
-5.23
-26.64
-42.59
-47.96
-40.68
-23.13
-1.54
16.38
24.38
19.67
2.90
-23.21
-55.47
-90.88
-126.20
-157.59
-181.00
-193.62
-195.28
-188.74
-178.57
-169.13
-162.95
-160.28
-159.72
-159.38
-157.68
-153.61
-146.91
-138.36
-129.86
-124.00
-122.65
-125.17
-127.59
-123.76
-108.28
-79.71
-42.07
-3.66
26.64
43.27
46.26
40.56
33.11
29.44
31.50
37.74
44.88
49.93
51.42
49.29
44.05
35.95
24.83
10.78
-5.18
-20.83
-33.26
-40.00
-40.10
-34.69
-26.73
-20.02
-17.87
-22.05
-32.12
-45.50
-58.22
-66.01
-65.67
-56.03
-38.40
-16.02
7.03
27.14
42.12
51.36
55.34
55.07
51.50
45.59
38.46
31.48
26.15
23.58
24.01
26.60
29.65
31.12
29.22
22.90
12.23
-1.48
-15.74
-27.34
-33.13
-30.96
-20.51
-3.52
16.73
36.44
52.46
63.11
68.22
68.63
65.56
60.06
52.98
45.21
37.84
32.02
28.70
28.06
29.41
31.23
31.67
29.04
22.35
11.46
-2.64
-17.91
-31.50
-40.28
-41.71
-34.73
-20.30
-1.21
18.76
36.03
48.23
54.62
55.84
53.17
47.92
41.09
33.40
25.66
18.80
13.79
11.26
11.08
12.33
13.51
13.04
9.73
3.02
-6.99
-19.59
-33.44
-46.56
-56.43
-60.48
-56.92
-45.50
-28.01
-7.81
11.12
25.52
33.65
35.63
32.84
27.22
20.49
13.86
7.96
3.07
-0.73
-3.50
-5.48
-7.06
-8.72
-10.91
-13.90
-17.78
-22.54
-28.25
-35.07
-43.08
-51.93
-60.35
-66.13
-66.50
-59.09
-43.01
-19.56
7.70
33.89
54.16
65.16
66.02
58.45
46.06
33.16
23.42
19.06
20.48
26.55
35.31
44.62
52.81
58.95
62.81
64.62
64.80
63.62
61.15
57.21
51.43
43.45
33.05
20.53
7.00
-5.42
-13.86
-15.42
-8.22
7.70
30.09
55.07
78.43
96.91
108.96
114.78
115.64
113.21
109.13
104.91
101.90
101.11
102.83
106.27
109.60
110.62
107.66
100.44
90.42
80.21
72.49
68.78
68.71
70.09
69.72
64.71
53.68
37.38
18.72
1.95
-8.51
-9.43
0.21
18.72
42.06
64.97
82.66
92.29
93.76
89.50
83.34
78.95
78.64
82.83
90.30
98.92
106.45
111.00
111.14
105.88
94.68
77.62
55.53
30.17
3.95
-20.45
-40.82
-56.05
-66.60
-74.52
-82.86
-94.46
-110.74
-130.72
-151.06
-167.02
-174.09
-169.55
-153.24
-127.42
-95.77
-62.37
-30.93
-4.42
15.06
26.53
30.30
28.14
22.87
17.55
14.55
14.82
17.86
22.24
26.34
28.94
29.47
27.94
24.78
20.58
16.04
11.72
7.91
4.39
0.40
-5.02
-12.52
-21.83
-31.54
-39.28
-42.61
-39.96
-31.37
-18.70
-4.99
6.47
13.21
14.11
9.46
0.54
-10.84
-22.83
-33.76
-42.33
-47.88
-50.55
-51.35
-51.88
-53.86
-58.42
-65.75
-75.05
-84.85
-93.68
-100.51
-105.09
-107.94
-110.04
-112.53
-116.25
-121.43
-127.39
-132.59
-135.06
-133.03
-125.79
-114.01
-99.66
-85.26
-72.99
-63.97
-58.14
-54.72
-52.82
-51.84
-51.53
-51.60
-51.45
-50.22
-47.13
-41.99
-35.49
-29.01
-23.97
-21.19
-20.62
-21.65
-23.70
-26.76
-31.41
-38.39
-48.07
-60.21
-74.13
-89.07
-104.28
-118.82
-131.22
-139.39
-141.30
-135.90
-123.98
-108.14
-91.84
-77.99
-67.73
-60.14
-52.87
-43.19
-28.88
-8.92
16.43
45.59
75.82
103.83
126.41
141.39
148.18
147.78
142.17
133.46
123.27
112.49
101.47
90.33
79.03
67.27
54.51
40.20
24.27
7.70
-7.38
-18.12
-22.03
-17.90
-6.51
9.48
26.25
39.92
47.55
47.88
41.30
29.58
15.23
0.83
-11.54
-20.61
-26.18
-28.93
-30.28
-31.84
-35.01
-40.48
-48.18
-57.28
-66.77
-75.75
-83.85
-91.20
-98.32
-105.84
-114.22
-123.48
-133.05
-141.54
-146.92
-147.00
-140.13
-126.07
-106.42
-84.27
-63.28
-46.33
-34.68
-27.74
-23.83
-21.07
-18.25
-15.02
-11.59
-8.23
-5.02
-1.93
0.89
2.86
3.09
0.79
-4.34
-11.80
-20.52
-29.15
-36.68
-42.64
-47.26
-51.18
-55.16
-59.72
-64.72
-69.25
-71.67
-69.97
-62.48
-48.64
-29.37
-7.07
15.10
34.05
47.63
55.01
56.51
53.21
46.48
37.82
28.74
20.76
15.20
12.81
13.48
16.29
19.64
21.92
21.91
19.15
13.91
6.92
-1.01
-9.36
-18.10
-27.67
-38.70
-51.40
-64.93
-77.12
-84.72
-84.44
-74.17
-54.11
-27.04
2.37
28.99
48.77
59.68
61.90
57.29
48.48
38.12
28.44
20.91
16.21
14.21
14.03
14.36
13.81
11.38
6.76
0.38
-6.86
-14.02
-20.56
-26.76
-33.76
-43.06
-55.71
-71.26
-87.21
-99.23
-102.52
-93.64
-72.15
-41.14
-6.36
25.71
49.89
63.64
67.21
62.88
53.80
43.02
33.02
25.50
21.35
20.56
22.28
25.02
27.14
27.33
25.02
20.37
14.08
6.90
-0.70
-8.77
-17.97
-29.24
-43.22
-59.44
-75.73
-88.28
-92.62
-85.23
-65.24
-35.19
-0.41
32.68
58.68
74.70
80.68
78.59
71.26
61.47
51.42
42.82
36.81
33.91
33.76
35.28
36.94
37.32
35.63
31.90
26.83
21.32
15.99
10.81
5.00
-2.73
-13.46
-27.14
-41.91
-54.17
-59.54
-54.51
-38.00
-12.16
18.24
47.31
69.97
83.35
87.17
83.18
74.13
62.86
51.72
42.25
35.26
30.81
28.38
27.03
25.71
23.52
20.00
15.16
9.45
3.47
-2.43
-8.46
-15.46
-24.62
-36.70
-51.07
-65.22
-75.02
-75.99
-65.12
-42.34
-11.00
23.13
53.76
76.12
88.11
90.42
85.61
76.88
67.14
58.53
52.33
49.07
48.58
50.04
52.22
53.71
53.36
50.54
45.27
37.99
29.23
19.28
7.91
-5.36
-20.73
-37.34
-52.93
-64.02
-66.95
-59.26
-40.94
-14.72
14.55
41.52
61.88
73.46
76.40
72.56
64.58
55.09
46.23
39.48
35.56
34.45
35.39
37.19
38.51
38.29
36.10
32.12
26.92
21.12
15.04
8.47
0.68
-9.27
-21.93
-36.76
-51.66
-63.08
-66.98
-60.28
-42.28
-15.29
15.88
45.43
68.44
82.18
86.42
82.93
74.43
63.67
52.92
43.81
37.30
33.69
32.56
32.86
33.21
32.32
29.39
24.36
17.80
10.62
3.55
-3.22
-10.27
-18.81
-30.02
-44.25
-60.15
-74.54
-83.10
-81.90
-69.05
-45.76
-16.26
13.60
38.24
54.03
60.07
57.80
50.03
39.80
29.69
21.46
16.16
14.16
15.21
18.46
22.64
26.26
28.12
27.56
24.59
19.70
13.48
6.19
-2.35
-12.55
-24.30
-36.45
-46.47
-51.11
-47.48
-34.41
-13.24
12.44
37.89
58.83
72.64
78.81
78.57
74.04
67.46
60.60
54.80
50.92
49.47
50.56
53.84
58.50
63.48
67.71
70.32
70.86
69.23
65.42
59.38
51.09
40.93
30.20
21.41
17.91
22.78
37.45
60.72
88.71
116.05
137.64
150.21
153.07
147.75
136.95
123.52
109.78
97.28
86.91
78.97
73.17
68.76
64.63
59.69
53.09
44.45
33.73
21.06
6.55
-9.79
-27.82
-47.00
-65.92
-82.31
-93.35
-96.44
-90.34
-75.93
-56.35
-36.20
-20.17
-11.55
-11.29
-18.11
-29.23
-41.43
-52.03
-59.31
-62.57
-61.98
-58.37
-53.02
-47.41
-42.90
-40.41
-40.33
-42.60
-46.98
-53.33
-61.62
-71.70
-82.87
-93.80
-102.52
-106.98
-105.67
-98.14
-85.14
-68.50
-50.64
-34.02
-20.66
-11.85
-7.95
-8.46
-12.24
-17.88
-24.09
-29.90
-34.85
-38.77
-41.75
-43.95
-45.65
-47.40
-50.07
-54.75
-62.49
-73.77
-88.10
-103.70
-117.62
-126.30
-126.60
-116.83
-97.68
-72.25
-45.29
-21.73
-5.23
2.78
3.09
-2.08
-10.22
-19.34
-28.29
-36.35
-42.86
-46.89
-47.62
-44.69
-38.76
-31.45
-24.97
-21.43
-22.24
-27.86
-37.68
-50.09
-62.61
-72.09
-75.35
-70.01
-55.53
-33.74
-8.53
15.22
33.27
43.26
45.05
40.30
31.34
20.33
8.79
-2.20
-11.75
-19.01
-23.34
-24.62
-23.49
-21.24
-19.43
-19.48
-22.38
-28.56
-38.01
-50.22
-63.98
-77.21
-86.91
-89.79
-83.27
-66.61
-41.52
-11.93
17.17
41.29
57.71
65.91
67.18
63.68
57.61
50.70
44.25
39.28
36.51
36.34
38.51
42.11
45.77
48.01
47.74
44.39
37.82
28.13
15.54
0.57
-15.51
-30.33
-40.62
-43.02
-35.41
-17.94
6.56
33.36
57.29
74.38
82.87
83.22
77.46
68.20
57.83
48.17
40.49
35.52
33.47
33.94
35.99
38.31
39.53
38.62
35.08
28.85
20.16
9.25
-3.65
-18.15
-33.10
-46.46
-55.27
-56.53
-48.28
-30.71
-6.47
19.85
43.20
59.59
67.19
66.58
60.06
50.63
40.96
32.81
26.88
23.03
20.73
19.35
18.42
17.61
16.72
15.50
13.69
10.98
7.03
1.45
-6.23
-16.37
-28.83
-42.40
-54.49
-61.46
-59.75
-47.28
-24.68
4.45
34.65
60.21
77.04
83.68
81.27
72.63
61.17
49.86
40.82
35.10
32.84
33.40
35.52
37.66
38.35
36.50
31.65
23.94
14.05
2.81
-9.07
-21.32
-34.18
-48.06
-62.96
-77.70
-89.61
-94.96
-90.35
-74.19
-47.86
-15.66
16.42
42.70
59.41
65.52
62.48
53.23
41.26
29.75
21.16
17.04
17.75
22.42
29.06
35.05
37.90
35.93
28.75
17.34
3.67
-9.96
-21.90
-31.89
-41.42
-53.17
-69.70
-91.80
-117.41
-141.70
-158.62
-163.11
-153.11
-130.30
-99.40
-66.35
-36.41
-13.03
2.45
10.19
11.32
7.51
0.86
-6.15
-10.96
-11.59
-7.23
1.37
12.20
22.71
30.75
35.38
37.02
37.05
36.90
37.19
37.27
35.36
29.41
18.06
1.38
-18.81
-39.42
-56.86
-68.07
-71.32
-66.65
-55.91
-42.13
-28.85
-19.12
-14.72
-15.71
-20.54
-26.58
-30.93
-31.16
-25.88
-14.90
0.80
19.37
38.40
55.24
67.41
72.87
70.37
59.79
42.54
21.69
1.74
-12.18
-15.68
-6.55
14.35
43.28
74.83
103.72
126.27
140.90
147.71
147.51
141.08
129.07
112.48
93.06
73.38
56.20
43.56
36.11
33.05
32.62
32.98
32.82
31.46
28.42
22.85
13.32
-1.67
-22.49
-47.26
-71.57
-89.38
-95.15
-86.09
-63.48
-32.38
0.17
27.56
45.53
52.86
50.84
42.20
30.10
17.57
7.25
1.20
0.40
4.28
10.58
15.92
16.98
11.68
0.07
-15.87
-33.04
-48.48
-60.44
-68.74
-74.58
-79.63
-85.00
-90.43
-93.96
-92.59
-83.44
-65.18
-38.99
-8.48
21.41
46.01
62.33
69.68
69.25
63.28
54.21
44.26
35.38
29.20
26.78
28.27
32.64
37.85
41.52
41.72
37.69
30.04
20.39
10.66
2.31
-4.23
-9.73
-15.81
-24.23
-35.93
-50.10
-63.99
-73.48
-74.48
-64.56
-44.16
-16.54
13.25
40.19
60.79
73.77
79.78
80.37
77.16
71.45
64.33
57.03
50.92
47.27
46.56
48.18
50.49
51.43
49.37
43.78
35.30
25.39
15.63
7.02
-0.32
-7.12
-14.60
-24.02
-36.17
-50.75
-66.12
-79.23
-86.29
-83.96
-70.71
-47.64
-18.47
11.66
37.79
56.58
66.94
69.68
66.65
59.84
50.98
41.53
32.88
26.27
22.56
21.74
22.87
24.39
24.73
22.86
18.68
12.88
6.51
0.46
-4.96
-10.10
-15.87
-23.44
-33.62
-46.38
-60.29
-72.57
-79.60
-78.16
-66.72
-46.29
-20.32
6.38
29.25
45.24
53.39
54.45
50.13
42.30
32.64
22.63
13.59
6.67
2.46
0.75
0.52
0.24
-1.41
-5.08
-10.57
-17.02
-23.44
-29.20
-34.34
-39.63
-46.18
-55.03
-66.36
-79.07
-90.55
-97.20
-95.58
-83.66
-61.85
-33.09
-2.00
26.57
49.00
63.61
70.65
71.61
68.46
63.07
57.08
51.92
48.73
48.11
49.90
53.05
55.95
56.95
54.98
49.94
42.65
34.48
26.73
20.15
14.65
9.42
3.14
-5.47
-17.05
-31.01
-45.24
-56.35
-60.60
-55.27
-39.85
-16.53
10.42
36.03
56.20
68.81
73.80
72.55
67.04
59.14
50.47
42.46
36.43
33.38
33.56
36.24
39.76
42.04
41.39
37.09
29.61
20.36
10.95
2.55
-4.64
-11.43
-19.33
-29.82
-43.67
-60.34
-77.71
-92.43
-100.85
-100.26
-89.95
-71.59
-48.78
-25.72
-5.99
8.39
16.97
20.40
19.77
16.21
10.93
5.39
1.27
0.11
2.67
8.53
16.04
22.85
26.77
26.57
22.32
15.25
7.18
-0.22
-6.02
-10.21
-13.59
-17.42
-22.93
-30.94
-41.53
-53.77
-65.60
-74.16
-76.46
-70.46
-55.93
-34.81
-10.73
12.14
30.40
42.21
47.51
47.52
44.03
38.82
33.35
28.71
25.49
23.77
23.08
22.44
20.68
16.83
10.39
1.52
-9.03
-20.24
-31.05
-40.80
-49.37
-57.23
-65.11
-73.50
-82.07
-89.40
-93.27
-91.40
-82.40
-66.60
-46.08
-24.22
-4.60
10.06
18.50
21.01
18.95
14.09
8.09
2.25
-2.48
-5.52
-6.57
-5.70
-3.38
-0.43
2.26
3.93
4.20
2.99
0.32
-3.94
-10.16
-18.67
-29.29
-40.82
-50.95
-56.70
-55.34
-45.49
-27.80
-5.01
18.93
39.98
55.23
63.51
65.29
62.18
56.11
48.86
41.68
35.31
30.14
26.27
23.67
22.12
21.23
20.39
18.85
15.90
11.03
4.04
-5.06
-16.07
-28.66
-42.13
-55.07
-65.21
-69.72
-66.15
-53.54
-33.17
-8.44
16.06
36.10
49.04
54.29
53.01
47.26
39.15
30.43
22.33
15.69
11.01
8.40
7.48
7.49
7.44
6.41
3.91
-0.14
-5.48
-11.81
-19.11
-27.61
-37.58
-48.70
-59.71
-68.29
-71.67
-67.64
-55.58
-36.96
-15.09
6.01
22.76
33.06
36.65
34.63
28.86
21.25
13.38
6.45
1.23
-1.84
-2.72
-1.80
0.14
2.17
3.38
3.14
1.17
-2.56
-7.95
-14.98
-23.59
-33.49
-43.83
-52.89
-58.29
-57.58
-49.18
-33.19
-11.66
11.84
33.31
49.52
58.85
61.46
58.78
52.79
45.36
37.89
31.41
26.57
23.71
22.78
23.33
24.51
25.29
24.86
22.71
18.79
13.31
6.49
-1.70
-11.40
-22.53
-34.31
-44.97
-51.98
-52.82
-46.03
-32.00
-13.08
7.05
24.62
36.81
42.48
42.05
37.00
29.17
20.31
11.81
4.67
-0.45
-3.32
-4.16
-3.57
-2.44
-1.66
-1.92
-3.54
-6.47
-10.52
-15.64
-22.10
-30.29
-40.25
-51.11
-60.88
-66.75
-66.10
-57.55
-41.77
-21.42
-0.36
17.60
29.80
35.21
34.37
28.77
20.27
10.61
1.32
-6.39
-11.71
-14.27
-14.34
-12.72
-10.62
-9.29
-9.67
-12.16
-16.66
-22.83
-30.37
-39.07
-48.65
-58.35
-66.59
-71.16
-69.86
-61.35
-46.04
-26.17
-5.22
13.18
26.45
33.58
35.09
32.37
27.01
20.42
13.77
8.01
3.98
2.17
2.52
4.37
6.57
7.89
7.41
4.72
-0.22
-7.29
-16.45
-27.58
-40.10
-52.52
-62.37
-66.69
-63.01
-50.47
-30.45
-6.27
17.67
37.41
50.50
56.47
56.52
52.68
46.93
40.69
34.75
29.50
25.18
22.01
20.09
19.25
18.93
18.25
16.31
12.50
6.61
-1.19
-10.63
-21.43
-33.25
-45.23
-55.62
-61.87
-61.19
-51.81
-33.97
-10.27
14.93
37.05
52.66
60.55
61.61
58.05
52.25
46.03
40.35
35.52
31.62
28.70
26.78
25.67
24.94
23.89
21.81
18.15
12.76
5.78
-2.48
-11.76
-21.95
-32.81
-43.57
-52.59
-57.39
-55.33
-44.68
-25.62
-0.53
26.52
50.96
69.19
79.37
81.70
77.88
70.32
61.40
53.02
46.39
42.02
39.73
38.86
38.44
37.52
35.41
31.87
27.04
21.32
15.16
8.84
2.34
-4.70
-12.90
-22.78
-34.33
-46.55
-57.23
-63.37
-62.12
-51.91
-33.40
-9.49
15.46
37.00
51.93
58.95
58.65
52.81
43.68
33.38
23.68
15.89
10.78
8.46
8.31
9.11
9.36
7.84
3.90
-2.36
-10.17
-18.43
-26.16
-32.83
-38.76
-44.99
-52.81
-62.96
-74.82
-86.09
-93.27
-92.95
-83.19
-64.63
-40.43
-15.23
6.40
21.39
28.85
29.78
26.34
20.92
15.55
11.58
9.77
10.35
13.06
17.21
21.76
25.58
27.71
27.60
25.29
21.23
16.07
10.26
3.78
-3.86
-13.18
-24.15
-35.53
-44.84
-48.88
-44.95
-32.05
-11.61
12.87
36.87
56.30
68.72
73.69
72.39
66.83
59.15
51.19
44.32
39.58
37.54
38.21
40.88
44.21
46.61
46.68
43.68
37.84
30.24
22.31
15.24
9.32
3.70
-3.30
-13.33
-26.87
-42.46
-56.78
-65.66
-65.79
-56.30
-39.52
-20.17
-3.72
5.74
6.85
1.09
-8.20
-17.46
-24.24
-27.58
-27.77
-25.60
-21.89
-17.40
-12.96
-9.46
-7.54
-7.14
-7.11
-5.54
-0.48
9.16
23.08
39.88
57.95
76.47
95.71
116.53
139.16
162.30
183.19
198.77
207.10
208.65
205.94
202.22
199.67
197.90
193.66
181.87
157.78
119.43
69.57
16.13
-29.38
-55.16
-53.24
-22.68
29.74
91.64
149.44
192.78
217.08
223.56
216.87
202.30
183.82
163.81
143.78
125.28
109.87
98.53
90.94
85.61
80.43
74.21
67.22
61.05
57.40
56.87
58.32
59.26
57.04
49.97
37.83
21.54
2.44
-18.32
-39.94
-61.60
-82.25
-100.57
-115.43
-126.40
-134.00
-139.57
-144.86
-151.35
-159.94
-170.80
-183.58
-197.61
-211.95
-225.31
-235.90
-241.58
-240.28
-230.66
-212.87
-188.72
-161.43
-134.85
-112.43
-96.46
-87.67
-85.31
-87.48
-91.68
-95.28
-96.08
-92.79
-85.19
-74.27
-61.95
-50.39
-41.55
-36.56
-35.54
-37.77
-42.01
-47.01
-51.90
-56.34
-60.62
-65.49
-71.97
-80.83
-92.11
-104.80
-116.73
-125.20
-127.85
-123.70
-113.85
-101.20
-89.55
-82.22
-80.78
-84.62
-91.38
-97.98
-101.77
-101.35
-96.82
-89.41
-81.03
-73.34
-67.36
-63.19
-60.16
-57.31
-53.95
-49.97
-45.92
-42.72
-41.25
-42.13
-45.60
-51.56
-59.48
-68.20
-75.63
-78.94
-75.15
-62.26
-40.33
-11.83
18.60
45.61
64.65
73.27
71.64
62.10
48.26
33.87
22.02
14.74
12.80
15.92
22.82
31.47
39.52
44.67
45.16
40.10
29.44
13.81
-5.89
-28.67
-53.53
-79.16
-103.55
-123.96
-137.09
-139.68
-129.35
-105.33
-69.15
-24.75
21.92
63.93
94.91
110.67
110.33
96.44
74.07
49.08
26.51
9.54
-0.68
-4.45
-3.02
1.68
7.22
10.71
9.55
2.20
-11.24
-29.13
-49.13
-69.17
-88.00
-104.87
-118.60
-127.00
-126.94
-115.62
-92.17
-58.77
-20.68
15.23
42.47
56.98
58.05
48.05
31.21
12.08
-5.54
-19.03
-26.83
-28.24
-23.39
-13.34
-0.17
13.35
24.58
31.71
34.29
32.99
28.87
22.57
14.02
2.84
-10.85
-25.63
-38.66
-46.49
-46.15
-36.56
-18.97
3.30
25.94
44.94
57.65
63.14
61.99
55.70
46.14
35.09
24.15
14.67
7.71
3.91
3.26
5.19
8.54
11.88
13.82
13.25
9.41
1.87
-9.40
-23.90
-40.25
-55.95
-67.60
-71.56
-65.26
-48.43
-23.48
4.88
31.23
51.13
62.29
64.78
60.33
51.27
39.68
27.14
14.94
4.18
-4.15
-9.49
-11.94
-12.32
-11.96
-12.15
-13.77
-17.12
-22.09
-28.48
-36.24
-45.40
-55.64
-65.65
-72.82
-73.66
-64.87
-44.90
-14.96
20.81
56.58
86.59
107.03
116.87
117.60
112.15
103.61
94.28
85.50
77.89
71.74
67.25
64.52
63.28
62.80
61.86
59.08
53.33
44.17
31.89
17.33
1.51
-14.54
-29.61
-42.00
-49.29
-48.89
-38.83
-19.03
8.19
38.43
66.40
87.64
99.76
102.80
98.76
90.51
80.81
71.66
64.16
58.68
55.09
53.00
51.85
51.02
49.88
47.80
44.35
39.31
32.71
24.79
15.66
5.21
-6.90
-20.77
-35.63
-49.30
-58.40
-59.39
-49.99
-30.49
-4.07
24.09
48.48
65.10
72.43
71.47
64.83
55.48
45.95
37.78
31.63
27.57
25.27
24.18
23.60
22.78
21.01
17.77
12.86
6.33
-1.48
-10.22
-19.79
-30.31
-42.07
-54.91
-67.71
-78.11
-82.91
-79.20
-65.62
-43.37
-16.08
11.27
33.93
48.92
55.59
55.37
50.71
44.18
37.76
32.65
29.35
27.86
27.76
28.36
28.79
28.25
26.24
22.61
17.63
11.71
5.29
-1.40
-8.51
-16.47
-25.86
-36.97
-49.27
-61.00
-69.30
-70.96
-63.61
-46.92
-22.94
4.32
30.17
50.77
64.03
69.86
69.60
65.16
58.48
51.19
44.66
39.99
37.85
38.18
40.10
42.10
42.51
40.13
34.70
26.84
17.85
9.09
1.45
-4.93
-10.83
-17.59
-26.71
-39.03
-54.04
-69.55
-81.93
-87.18
-82.37
-67.00
-43.45
-16.21
9.68
30.42
44.41
52.19
55.43
55.69
53.79
49.91
44.28
37.79
31.97
28.48
28.21
30.72
34.33
36.76
36.18
32.00
24.99
16.88
9.48
3.92
0.15
-2.90
-6.78
-12.93
-22.13
-34.28
-48.24
-61.92
-72.60
-77.37
-73.96
-61.57
-41.45
-16.81
8.09
29.25
44.19
52.56
55.72
55.81
54.61
52.92
50.72
47.78
44.22
40.72
38.26
37.47
38.22
39.56
40.02
38.28
33.70
26.54
17.87
9.07
1.38
-4.59
-8.99
-12.56
-16.39
-21.47
-28.50
-37.63
-48.31
-59.28
-68.55
-73.71
-72.56
-63.80
-47.66
-26.17
-2.65
19.23
36.56
47.87
53.27
53.96
51.56
47.53
42.88
38.32
34.36
31.51
30.08
30.14
31.26
32.59
33.04
31.52
27.40
20.65
11.84
1.99
-7.78
-16.63
-24.28
-31.06
-37.76
-45.28
-54.39
-65.44
-78.15
-91.48
-103.60
-112.00
-114.10
-107.94
-93.08
-71.00
-44.80
-18.37
4.79
22.48
34.00
39.76
40.64
37.54
31.30
22.94
13.91
5.87
0.38
-1.74
-0.76
2.12
5.12
6.63
5.67
2.10
-3.47
-10.05
-16.62
-22.38
-26.90
-30.08
-32.14
-33.67
-35.67
-39.29
-45.23
-53.15
-61.16
-66.14
-64.75
-54.77
-36.29
-11.81
14.61
38.81
57.91
70.76
77.63
79.28
76.28
69.03
58.15
45.18
32.66
23.60
20.43
23.95
32.77
43.63
52.46
55.73
51.64
40.63
25.10
8.59
-5.40
-14.38
-17.38
-14.93
-8.58
-0.46
7.21
12.51
14.10
11.71
6.43
0.71
-2.30
0.16
9.29
24.00
41.25
57.02
67.74
71.35
67.60
57.58
43.09
26.09
8.54
-7.55
-20.08
-27.38
-28.73
-24.96
-18.48
-12.63
-10.61
-14.27
-23.47
-36.15
-49.10
-59.31
-64.99
-66.20
-64.73
-63.28
-64.50
-69.98
-79.54
-91.14
-101.27
-105.91
-101.80
-87.67
-64.95
-37.42
-10.06
12.81
28.99
38.94
45.03
50.00
55.55
61.79
67.62
71.81
73.84
74.16
73.85
73.86
74.61
75.77
76.57
76.18
73.98
69.64
63.06
54.29
43.43
30.65
16.19
0.47
-15.89
-32.13
-47.26
-60.20
-69.83
-75.10
-75.22
-69.97
-59.89
-46.34
-31.33
-17.05
-5.30
2.81
7.05
7.81
5.83
2.03
-2.67
-7.35
-11.19
-13.61
-14.39
-13.81
-12.48
-11.24
-10.82
-11.60
-13.49
-16.02
-18.49
-20.41
-21.70
-22.87
-24.88
-28.57
-34.19
-40.84
-46.52
-48.68
-45.18
-35.24
-19.93
-1.88
15.59
29.56
38.37
41.79
40.69
36.44
30.33
23.33
16.28
9.94
5.11
2.48
2.32
4.32
7.63
11.15
14.00
15.76
16.54
16.54
15.73
13.47
8.69
0.42
-11.44
-25.57
-39.18
-48.74
-51.18
-45.18
-31.86
-14.51
2.44
15.04
21.06
20.52
15.34
8.28
1.92
-2.09
-3.15
-1.50
2.16
6.97
12.01
16.42
19.44
20.54
19.62
16.94
12.97
8.19
2.77
-3.42
-10.74
-19.56
-29.83
-40.66
-50.25
-56.07
-55.56
-47.09
-30.69
-8.40
16.28
39.39
57.68
69.30
74.01
72.70
66.84
57.94
47.48
36.77
27.00
19.08
13.39
9.72
7.31
5.12
2.30
-1.60
-6.49
-11.95
-17.49
-22.90
-28.42
-34.70
-42.52
-52.21
-63.18
-73.68
-81.12
-82.86
-77.18
-64.06
-45.30
-24.07
-3.82
12.71
24.13
30.42
32.50
31.60
28.92
25.43
22.01
19.56
18.76
20.00
22.99
26.88
30.46
32.64
32.82
30.97
27.43
22.53
16.35
8.77
-0.15
-9.57
-17.76
-22.34
-21.06
-12.85
1.61
19.84
38.40
53.95
64.22
68.44
67.18
61.76
53.63
44.11
34.26
24.95
16.92
10.68
6.33
3.51
1.50
-0.58
-3.43
-7.42
-12.45
-18.24
-24.53
-31.47
-39.51
-49.11
-60.21
-71.65
-81.30
-86.61
-85.57
-77.75
-64.61
-49.05
-34.45
-23.48
-17.42
-16.03
-18.08
-22.00
-26.41
-30.40
-33.40
-35.07
-35.13
-33.45
-30.10
-25.51
-20.41
-15.70
-12.19
-10.43
-10.60
-12.74
-16.76
-22.49
-29.36
-36.14
-40.92
-41.48
-36.10
-24.46
-7.96
10.53
27.56
40.31
47.32
48.75
45.90
40.54
34.32
28.36
23.38
19.75
17.67
17.12
17.85
19.34
20.82
21.46
20.53
17.51
12.17
4.54
-5.00
-15.66
-26.10
-34.43
-38.60
-36.86
-28.60
-14.65
2.76
20.58
35.89
46.64
52.04
52.43
48.92
42.91
35.85
28.99
23.39
19.69
18.05
18.04
18.81
19.32
18.70
16.49
12.63
7.37
0.91
-6.72
-15.60
-25.61
-35.98
-45.16
-51.04
-51.67
-46.09
-34.90
-20.25
-5.08
7.74
16.33
20.06
19.42
15.51
9.64
3.10
-2.91
-7.32
-9.39
-8.94
-6.41
-2.81
0.62
2.89
3.44
2.30
-0.18
-3.68
-8.07
-13.48
-19.94
-27.03
-33.57
-37.76
-37.71
-32.18
-21.26
-6.56
9.22
23.10
32.80
37.31
37.04
33.36
28.03
22.60
18.11
15.14
13.86
14.15
15.67
17.80
19.74
20.71
20.06
17.56
13.30
7.53
0.50
-7.69
-16.83
-26.34
-34.94
-40.75
-41.78
-36.70
-25.64
-10.26
6.52
21.57
32.44
38.03
38.64
35.54
30.35
24.54
19.17
14.90
12.10
10.92
11.27
12.78
14.84
16.66
17.55
17.05
14.99
11.52
6.87
1.30
-4.94
-11.45
-17.37
-21.42
-21.98
-17.69
-8.08
6.03
22.56
38.75
51.96
60.47
63.79
62.59
58.33
52.70
47.22
42.97
40.42
39.43
39.39
39.41
38.61
36.41
32.63
27.45
21.21
14.21
6.52
-2.02
-11.57
-22.02
-32.66
-42.21
-48.98
-51.47
-48.92
-41.74
-31.48
-20.38
-10.76
-4.41
-2.20
-4.14
-9.45
-16.97
-25.30
-33.11
-39.38
-43.46
-45.34
-45.46
-44.56
-43.36
-42.31
-41.52
-40.86
-40.31
-40.08
-40.71
-42.75
-46.33
-50.77
-54.53
-55.57
-52.14
-43.46
-30.23
-14.42
1.32
14.52
23.58
28.00
28.26
25.35
20.42
14.57
8.83
4.16
1.40
0.99
2.84
6.18
9.80
12.37
12.85
10.67
5.72
-1.70
-10.98
-21.06
-30.38
-37.03
-39.05
-35.18
-25.39
-11.12
4.98
19.88
31.02
37.07
38.09
35.24
30.12
24.22
18.51
13.50
9.44
6.49
4.80
4.37
4.93
5.87
6.35
5.49
2.58
-2.77
-10.60
-20.47
-31.28
-41.30
-48.29
-50.15
-45.56
-34.74
-19.41
-2.44
13.14
24.98
31.94
34.10
32.31
27.80
21.84
15.55
9.95
5.77
3.46
3.00
3.96
5.61
7.14
7.85
7.22
4.91
0.72
-5.46
-13.50
-22.88
-32.46
-40.46
-44.83
-43.80
-36.62
-23.99
-8.06
8.13
21.64
30.49
34.05
33.01
28.84
23.13
17.20
11.89
7.67
4.82
3.49
3.62
4.90
6.75
8.36
8.98
7.99
5.14
0.40
-6.11
-14.06
-22.84
-31.32
-37.87
-40.59
-37.89
-29.30
-15.79
0.24
15.76
28.05
35.49
37.90
36.27
32.17
27.11
22.20
18.12
15.22
13.68
13.50
14.49
16.18
17.90
18.95
18.81
17.25
14.25
9.86
4.11
-2.97
-11.14
-19.57
-26.79
-30.86
-30.03
-23.48
-11.87
2.62
16.98
28.24
34.48
35.34
31.77
25.60
18.68
12.36
7.37
3.86
1.69
0.54
0.09
-0.06
-0.33
-1.16
-2.90
-5.76
-9.84
-15.21
-21.96
-30.24
-39.96
-50.55
-60.64
-68.23
-71.21
-68.12
-58.85
-44.95
-29.14
-14.55
-3.64
2.46
3.93
1.99
-1.80
-6.04
-9.67
-12.09
-13.01
-12.42
-10.57
-7.96
-5.19
-2.87
-1.50
-1.43
-2.88
-6.04
-11.08
-18.10
-26.80
-36.24
-44.68
-49.82
-49.46
-42.39
-29.04
-11.60
6.64
22.36
33.39
39.16
40.51
39.01
36.15
32.87
29.56
26.38
23.51
21.26
19.91
19.42
19.36
18.97
17.43
14.24
9.29
2.84
-4.77
-13.31
-22.65
-32.46
-41.76
-48.84
-51.56
-48.09
-37.79
-21.74
-2.54
16.49
32.32
43.13
48.52
49.30
46.93
42.91
38.54
34.69
31.83
30.07
29.14
28.51
27.49
25.49
22.20
17.64
12.16
6.20
0.16
-5.84
-12.06
-19.07
-27.47
-37.45
-48.23
-57.97
-64.01
-63.78
-55.78
-40.42
-20.12
1.50
20.81
35.33
44.31
48.42
49.06
47.52
44.68
41.07
37.15
33.63
31.23
30.36
30.82
31.66
31.56
29.41
24.80
18.19
10.72
3.68
-2.01
-6.19
-9.54
-13.32
-18.88
-27.09
-37.82
-49.64
-60.00
-65.89
-64.83
-55.80
-39.73
-19.25
2.22
21.47
36.46
46.55
52.16
54.21
53.59
51.05
47.29
43.16
39.70
37.76
37.70
39.04
40.62
41.06
39.29
35.04
28.89
22.03
15.66
10.55
6.76
3.68
0.32
-4.30
-10.89
-19.61
-29.92
-40.45
-49.14
-53.61
-51.87
-43.14
-28.32
-9.93
8.64
24.29
35.03
40.49
41.48
39.36
35.37
30.38
25.03
19.96
15.96
13.71
13.41
14.59
16.08
16.46
14.62
10.16
3.56
-4.04
-11.25
-16.94
-20.70
-22.98
-24.91
-27.93
-33.27
-41.30
-51.17
-60.88
-67.60
-68.66
-62.49
-49.23
-30.92
-10.75
7.92
22.60
32.16
36.71
37.12
34.35
29.33
23.00
16.46
11.00
7.68
6.90
8.12
9.96
10.82
9.52
5.80
0.30
-5.84
-11.59
-16.48
-20.64
-24.60
-28.88
-33.67
-38.84
-43.86
-47.91
-49.87
-48.39
-42.23
-30.68
-14.14
5.71
26.22
44.53
58.48
67.19
71.07
71.32
69.32
66.12
62.41
58.70
55.54
53.43
52.74
53.34
54.51
55.08
53.80
49.80
42.92
33.69
23.16
12.45
2.39
-6.73
-15.06
-23.17
-31.70
-41.16
-51.72
-62.76
-72.86
-79.91
-81.63
-76.62
-64.97
-48.59
-30.60
-14.21
-1.70
6.23
10.14
11.24
10.64
8.95
6.51
3.72
1.29
0.13
0.87
3.49
7.15
10.42
11.94
10.96
7.71
3.24
-1.01
-3.90
-5.03
-4.88
-4.61
-5.49
-8.53
-14.10
-21.80
-30.47
-38.40
-43.54
-44.08
-38.90
-28.12
-13.13
3.64
19.48
32.09
40.15
43.44
42.59
38.66
32.86
26.35
20.29
15.70
13.32
13.40
15.47
18.45
20.91
21.59
19.81
15.71
10.04
3.83
-2.05
-7.20
-11.72
-16.06
-20.94
-27.04
-34.80
-44.10
-54.00
-62.72
-67.99
-67.74
-60.94
-48.15
-31.46
-13.83
1.78
13.38
20.18
22.52
21.33
17.74
12.79
7.50
2.89
-0.08
-0.78
0.80
3.92
7.29
9.53
9.69
7.67
4.15
0.22
-3.13
-5.48
-7.14
-8.95
-11.96
-16.94
-24.06
-32.66
-41.20
-47.60
-49.76
-46.25
-36.87
-22.82
-6.38
9.85
23.64
33.62
39.39
41.23
39.76
35.82
30.46
24.91
20.50
18.25
18.41
20.38
22.74
23.95
22.82
19.06
13.20
6.24
-0.84
-7.40
-13.29
-18.75
-24.21
-30.22
-37.28
-45.65
-54.87
-63.63
-69.71
-70.68
-64.80
-51.90
-33.74
-13.50
5.25
19.67
28.36
31.37
29.81
25.09
18.69
11.84
5.67
1.10
-1.31
-1.58
-0.34
1.26
2.03
1.12
-1.72
-6.12
-11.33
-16.52
-21.12
-25.03
-28.66
-32.86
-38.50
-46.04
-54.94
-63.46
-68.95
-68.68
-61.02
-46.29
-26.88
-6.51
11.05
23.30
29.55
30.79
28.90
25.78
22.82
20.81
20.02
20.46
21.96
24.10
26.30
27.90
28.33
27.42
25.34
22.60
19.75
17.12
14.60
11.64
7.42
1.28
-6.65
-15.13
-21.81
-23.87
-19.08
-6.72
11.83
33.49
54.46
71.52
82.88
88.42
89.21
86.77
82.40
77.04
71.39
66.20
62.21
59.96
59.49
60.10
60.63
59.92
57.32
52.96
47.61
42.23
37.41
33.11
28.67
23.07
15.70
6.84
-2.03
-8.43
-9.66
-3.75
9.65
28.85
50.56
70.79
86.12
94.64
96.38
92.99
86.92
80.58
75.48
72.05
69.68
67.21
63.51
57.79
49.80
39.73
27.91
14.76
0.63
-14.09
-29.06
-44.00
-58.65
-72.57
-84.78
-93.61
-96.86
-92.55
-79.80
-59.54
-34.55
-8.69
14.21
31.41
41.73
45.38
43.52
37.76
29.85
21.66
14.94
11.06
10.53
12.68
15.81
17.61
16.01
9.80
-1.10
-15.82
-33.12
-51.94
-71.67
-91.82
-111.59
-129.47
-143.25
-150.85
-151.09
-144.49
-133.21
-120.28
-108.43
-99.25
-92.84
-88.33
-84.61
-80.90
-76.92
-72.62
-67.88
-62.39
-55.78
-47.80
-38.58
-28.54
-18.29
-8.60
-0.23
6.11
9.73
10.19
7.42
2.12
-4.11
-8.86
-9.29
-3.15
10.44
30.29
53.32
75.46
92.92
103.41
106.64
104.10
98.30
91.89
86.80
83.54
80.95
76.62
67.92
53.34
33.31
10.16
-12.97
-33.66
-51.24
-66.82
-82.22
-98.68
-116.07
-132.99
-147.44
-157.55
-161.87
-159.23
-148.64
-129.62
-102.72
-70.05
-35.06
-1.88
25.73
45.43
56.78
61.22
61.52
60.84
61.87
66.06
73.33
82.25
90.68
96.55
98.47
96.12
90.11
81.65
71.95
61.72
50.93
38.91
24.81
8.42
-9.22
-25.56
-37.12
-40.73
-34.82
-20.37
-0.69
19.64
36.30
46.55
49.75
47.09
40.82
33.28
26.13
19.98
14.43
8.64
2.00
-5.37
-12.72
-19.23
-24.71
-30.00
-36.64
-46.21
-59.42
-75.95
-94.69
-114.19
-132.97
-149.27
-160.72
-164.34
-157.38
-138.51
-108.84
-72.04
-33.36
1.90
29.79
48.49
58.18
60.49
57.74
52.28
46.19
40.97
37.44
35.67
35.21
35.31
35.17
34.28
32.40
29.57
26.00
21.83
17.04
11.42
4.80
-2.51
-9.19
-12.85
-10.53
0.21
20.06
47.14
77.31
105.32
126.56
138.53
141.35
137.31
129.67
121.48
114.73
110.28
108.12
107.75
108.59
109.88
110.78
110.29
107.38
101.37
92.08
79.89
65.48
49.36
31.64
12.01
-9.53
-32.05
-53.16
-69.48
-77.76
-76.37
-66.28
-50.98
-35.25
-23.39
-17.78
-18.42
-23.46
-30.30
-36.74
-41.33
-43.58
-43.56
-41.76
-39.01
-36.36
-34.82
-35.03
-36.93
-39.95
-43.29
-46.58
-50.10
-54.85
-61.90
-71.63
-83.11
-93.83
-100.44
-99.74
-90.20
-72.79
-51.10
-30.34
-15.57
-10.12
-14.50
-26.48
-42.33
-58.40
-72.53
-84.51
-95.63
-107.71
-122.12
-139.14
-157.72
-175.31
-188.17
-192.08
-183.58
-161.77
-129.24
-92.03
-57.70
-32.55
-19.16
-15.59
-16.61
-16.42
-11.19
-0.22
14.67
30.66
45.39
57.50
66.38
71.62
72.68
69.26
61.88
52.18
42.68
35.97
33.78
36.28
42.19
49.36
55.63
59.49
60.24
57.69
51.80
42.58
30.52
17.08
5.05
-1.92
-0.57
10.55
30.06
54.06
77.38
95.37
105.42
107.28
102.58
93.67
82.62
70.88
59.33
48.64
39.39
31.95
26.23
21.54
16.77
10.73
2.60
-7.80
-20.11
-33.61
-47.73
-62.17
-76.80
-91.11
-103.73
-112.38
-114.35
-107.83
-92.91
-72.05
-49.46
-29.77
-16.66
-12.01
-15.90
-27.17
-44.10
-64.82
-87.36
-109.64
-129.53
-144.94
-154.26
-156.53
-151.62
-140.44
-124.74
-106.89
-89.33
-74.09
-62.52
-55.33
-52.80
-54.76
-60.34
-67.43
-72.66
-72.21
-63.08
-44.58
-18.98
9.13
34.43
52.72
62.06
63.02
57.83
49.37
40.29
32.61
27.57
25.83
27.28
31.10
35.89
40.02
42.12
41.43
38.08
32.87
26.90
21.19
16.26
11.98
7.55
1.79
-6.38
-17.42
-30.47
-43.22
-52.25
-53.99
-46.21
-29.08
-5.44
19.99
42.20
57.55
64.73
64.66
59.69
52.45
45.01
38.88
34.91
33.64
35.15
38.88
43.55
47.29
48.34
45.61
39.26
30.61
21.61
14.07
8.81
5.29
1.79
-3.94
-13.47
-26.78
-41.75
-54.47
-60.51
-56.53
-41.70
-18.17
9.56
36.19
57.33
70.55
75.72
74.29
68.41
60.27
51.75
44.48
39.80
38.49
40.50
44.73
49.25
51.98
51.40
47.20
40.23
32.11
24.41
18.02
12.87
7.89
1.57
-7.42
-19.49
-33.63
-47.38
-57.35
-60.29
-54.14
-38.99
-17.14
7.46
30.42
48.16
58.75
62.01
59.20
52.36
43.73
35.44
29.24
26.30
26.92
30.43
35.26
39.41
41.17
39.69
35.26
29.01
22.32
16.24
10.97
6.01
0.29
-7.32
-17.55
-30.20
-43.80
-55.66
-62.47
-61.31
-50.89
-32.27
-8.79
14.95
34.57
47.19
52.05
50.22
43.87
35.44
27.07
20.42
16.49
15.56
17.16
20.15
23.07
24.62
24.00
21.07
16.32
10.53
4.49
-1.27
-6.74
-12.48
-19.40
-28.34
-39.18
-50.37
-58.90
-61.12
-54.28
-37.87
-14.29
11.92
35.55
52.50
60.91
61.21
55.46
46.34
36.33
27.39
20.80
17.18
16.51
18.11
20.84
23.43
24.84
24.44
22.11
18.01
12.35
5.19
-3.70
-14.64
-27.66
-41.98
-55.61
-65.58
-68.73
-62.94
-48.28
-27.26
-4.32
15.72
29.18
34.53
32.50
25.31
15.64
5.80
-2.63
-8.79
-12.36
-13.40
-12.36
-10.00
-7.34
-5.39
-4.93
-6.35
-9.67
-14.69
-21.34
-29.60
-39.39
-50.03
-59.81
-66.15
-66.21
-58.16
-42.11
-20.52
2.51
22.70
37.01
44.46
45.99
43.47
38.80
33.30
27.72
22.64
18.63
16.27
15.81
16.84
18.42
19.28
18.43
15.38
10.26
3.48
-4.62
-13.96
-24.54
-35.82
-46.29
-53.37
-54.09
-46.29
-29.74
-6.70
18.66
41.63
58.52
67.74
69.87
66.97
61.38
54.88
48.34
41.92
35.66
29.86
25.06
21.76
19.96
18.91
17.38
14.09
8.37
0.26
-9.66
-20.78
-32.66
-44.81
-56.23
-64.92
-68.26
-63.95
-51.21
-31.57
-8.63
13.15
30.01
40.09
43.67
42.54
38.88
34.39
29.90
25.62
21.62
18.08
15.39
13.88
13.48
13.61
13.34
11.69
8.10
2.58
-4.43
-12.39
-20.98
-30.08
-39.40
-47.93
-53.83
-54.63
-48.34
-34.41
-14.40
8.23
29.29
45.17
54.02
55.99
52.79
46.79
40.14
34.31
30.04
27.40
26.12
25.62
25.28
24.49
22.84
20.16
16.46
11.87
6.56
0.61
-5.96
-13.31
-21.71
-31.35
-41.95
-52.30
-60.22
-62.97
-58.20
-45.11
-25.05
-1.37
21.65
40.17
51.97
56.84
56.11
51.78
45.78
39.62
34.35
30.71
29.22
29.87
32.06
34.66
36.24
35.70
32.63
27.44
21.15
14.92
9.54
5.10
0.99
-4.01
-11.19
-21.24
-33.74
-46.78
-57.27
-61.78
-57.80
-44.88
-24.97
-1.94
19.76
36.54
46.57
49.92
47.91
42.32
34.81
26.73
19.33
13.74
10.79
10.72
12.91
15.95
18.13
18.09
15.31
10.18
3.75
-2.86
-8.94
-14.49
-20.22
-27.28
-36.79
-49.01
-62.85
-75.65
-83.79
-83.87
-74.12
-55.45
-31.30
-6.60
13.96
27.41
33.03
32.02
26.46
18.43
9.66
1.48
-4.89
-8.47
-8.81
-6.31
-2.31
1.39
3.18
2.26
-1.08
-5.78
-10.60
-14.72
-18.15
-21.72
-26.81
-34.58
-45.25
-57.43
-68.06
-73.16
-69.27
-54.91
-31.59
-3.51
23.72
45.11
57.81
61.71
58.85
52.14
44.25
36.95
31.21
27.44
25.79
26.04
27.51
29.05
29.33
27.40
23.00
16.67
9.41
2.19
-4.49
-10.84
-17.68
-25.97
-36.20
-47.75
-58.61
-65.77
-66.11
-57.75
-40.93
-18.29
5.96
27.40
42.77
50.83
52.19
48.66
42.47
35.59
29.54
25.36
23.53
23.96
25.92
28.22
29.56
29.00
26.21
21.54
15.70
9.43
3.13
-3.24
-10.18
-18.32
-28.10
-39.33
-50.75
-60.13
-64.69
-62.02
-51.13
-33.05
-10.83
11.35
29.47
40.86
44.80
42.37
35.75
27.43
19.52
13.49
10.08
9.34
10.73
13.27
15.76
17.05
16.34
13.30
8.16
1.56
-5.66
-12.72
-19.25
-25.44
-32.01
-39.86
-49.40
-59.94
-69.52
-75.24
-74.39
-65.59
-49.67
-29.72
-10.23
4.28
10.66
7.86
-2.90
-18.87
-36.68
-53.23
-66.49
-75.73
-81.47
-85.09
-88.13
-91.56
-95.36
-98.64
-100.04
-98.61
-94.47
-89.01
-84.65
-84.03
-89.18
-100.74
-117.44
-136.16
-152.45
-161.32
-158.77
-143.12
-115.85
-81.31
-45.09
-11.45
18.74
48.24
81.67
122.19
168.91
216.29
256.18
281.37
288.52
279.08
257.64
229.37
197.94
165.21
132.22
100.36
71.57
47.33
27.53
10.28
-7.03
-25.75
-44.59
-59.64
-66.07
-60.36
-41.99
-13.90
18.91
51.19
79.06
100.69
115.81
124.87
128.38
126.66
120.33
110.53
98.94
87.29
76.77
67.62
59.34
51.21
42.79
34.27
26.22
19.19
13.31
8.12
2.78
-3.62
-11.57
-20.79
-30.10
-37.66
-41.57
-40.56
-34.62
-25.17
-14.52
-5.17
1.17
3.94
3.67
1.48
-1.55
-4.69
-7.53
-9.77
-11.19
-11.70
-11.59
-11.41
-11.52
-11.47
-9.84
-4.78
4.58
16.92
28.81
36.44
38.07
35.66
34.25
39.11
52.51
72.11
92.12
106.63
112.63
111.02
104.77
96.01
84.21
66.91
42.31
11.64
-20.54
-48.78
-69.86
-84.44
-96.02
-107.75
-119.66
-128.32
-129.46
-121.54
-107.91
-95.56
-91.08
-96.43
-107.38
-115.58
-113.30
-97.67
-72.16
-44.58
-23.07
-12.50
-13.09
-21.55
-33.45
-45.39
-55.84
-64.73
-72.42
-78.91
-83.57
-85.47
-83.85
-78.64
-70.73
-61.65
-53.19
-46.76
-42.99
-41.98
-43.85
-49.10
-58.33
-71.26
-85.74
-97.55
-101.52
-93.59
-72.85
-42.26
-7.82
23.71
47.05
59.77
62.20
56.41
45.02
30.41
14.56
-0.79
-14.08
-24.13
-30.36
-33.04
-33.19
-32.42
-32.48
-34.91
-40.75
-50.30
-63.11
-77.86
-92.39
-103.99
-109.85
-107.86
-97.37
-79.62
-57.58
-35.09
-15.72
-1.73
6.35
9.46
9.33
7.73
6.04
5.21
5.87
8.56
13.67
21.19
30.53
40.40
49.07
54.58
55.33
50.34
39.51
23.83
5.38
-12.76
-27.05
-34.28
-32.42
-21.33
-2.90
19.45
41.78
60.71
74.06
81.12
82.21
78.31
70.68
60.72
49.97
39.99
32.16
27.38
25.84
26.97
29.61
32.41
34.07
33.59
30.26
23.64
13.80
1.53
-11.35
-22.01
-27.30
-24.75
-13.59
4.68
26.61
47.96
65.05
75.80
80.03
78.98
74.42
68.02
60.91
53.91
47.73
43.07
40.54
40.35
42.06
44.62
46.63
46.79
44.18
38.38
29.37
17.46
3.42
-11.31
-24.45
-33.16
-34.84
-28.06
-13.44
6.35
27.34
45.54
58.20
64.41
64.92
61.40
55.67
49.14
42.73
37.10
32.75
30.09
29.23
29.86
31.14
31.93
31.10
27.89
22.05
13.82
3.64
-7.93
-20.10
-31.67
-40.78
-45.23
-43.06
-33.47
-17.46
2.21
21.79
37.72
47.68
51.10
48.92
42.91
34.97
26.62
18.93
12.58
7.91
5.03
3.72
3.53
3.79
3.70
2.51
-0.47
-5.81
-13.90
-24.82
-38.07
-52.33
-65.33
-74.14
-75.93
-68.95
-53.41
-31.62
-7.44
14.98
32.46
43.54
48.49
48.70
45.84
41.34
36.21
31.27
27.23
24.67
23.89
24.60
26.02
27.01
26.52
23.85
18.75
11.30
1.66
-9.84
-22.55
-35.06
-45.16
-50.16
-47.77
-37.16
-19.53
2.03
23.42
40.95
52.35
57.20
56.60
52.35
46.19
39.42
32.89
27.27
23.09
20.72
20.08
20.60
21.30
21.06
19.08
15.08
9.30
2.13
-6.19
-15.71
-26.56
-38.34
-49.67
-58.12
-60.90
-55.97
-43.11
-24.33
-3.33
15.74
29.68
37.06
38.31
35.06
29.29
22.63
16.21
10.67
6.43
3.72
2.54
2.63
3.36
3.94
3.60
1.73
-1.92
-7.37
-14.51
-23.19
-33.18
-43.79
-53.65
-60.72
-62.70
-57.89
-45.99
-28.56
-8.62
10.18
24.76
33.39
35.99
33.76
28.56
22.20
16.14
11.24
7.90
6.11
5.60
5.94
6.54
6.76
5.99
3.73
-0.31
-6.36
-14.45
-24.55
-36.21
-48.35
-58.98
-65.56
-65.63
-57.87
-42.80
-22.91
-1.94
16.34
29.32
36.14
37.56
35.30
31.15
26.53
22.26
18.75
16.23
14.77
14.28
14.44
14.63
14.17
12.44
9.15
4.33
-1.80
-9.03
-17.40
-26.93
-37.29
-47.37
-55.12
-58.06
-54.08
-42.51
-24.66
-3.53
17.07
33.75
44.51
49.09
48.58
44.75
39.40
33.86
29.08
25.56
23.52
22.89
23.23
23.85
23.95
22.92
20.52
16.91
12.49
7.64
2.46
-3.34
-10.33
-18.91
-28.87
-38.89
-46.66
-49.44
-45.11
-33.18
-15.23
5.49
25.07
40.29
49.40
52.36
50.40
45.29
38.76
32.28
27.04
23.83
22.99
24.20
26.44
28.33
28.55
26.37
21.91
16.02
9.88
4.48
0.27
-3.06
-6.47
-11.15
-17.99
-26.97
-36.80
-45.06
-48.88
-46.02
-35.82
-19.60
-0.38
18.18
32.89
41.83
44.67
42.25
36.19
28.26
20.20
13.49
9.15
7.47
7.88
9.14
9.69
8.25
4.28
-1.89
-9.25
-16.60
-23.01
-28.21
-32.69
-37.43
-43.55
-51.65
-61.37
-71.13
-78.41
-80.55
-75.68
-63.54
-45.70
-25.11
-5.25
10.91
21.56
26.20
25.54
20.93
14.15
7.04
1.26
-1.91
-2.02
0.48
4.28
7.65
9.09
7.83
4.11
-1.13
-6.66
-11.55
-15.50
-18.84
-22.41
-27.15
-33.81
-42.51
-52.44
-61.80
-68.04
-68.60
-61.89
-47.97
-28.84
-7.81
11.55
26.46
35.61
39.13
38.16
34.20
28.69
22.91
17.93
14.69
13.70
14.94
17.66
20.61
22.34
21.78
18.61
13.38
7.20
1.30
-3.55
-7.25
-10.42
-14.01
-19.03
-26.14
-35.37
-45.88
-55.95
-63.18
-65.15
-60.14
-47.98
-30.33
-10.27
8.57
23.15
31.85
34.61
32.57
27.38
20.68
13.79
7.83
3.64
1.71
2.05
4.01
6.44
8.02
7.72
5.19
0.81
-4.52
-9.78
-14.36
-18.25
-22.12
-27.01
-33.85
-42.88
-53.22
-62.78
-68.73
-68.42
-60.40
-45.11
-24.95
-3.51
15.60
29.72
37.78
40.06
37.75
32.34
25.35
18.23
12.34
8.84
8.28
10.37
13.95
17.24
18.60
17.05
12.69
6.56
0.06
-5.63
-10.07
-13.71
-17.63
-23.00
-30.64
-40.43
-51.17
-60.62
-66.07
-65.11
-56.58
-41.07
-20.90
0.47
19.59
33.83
41.96
44.06
41.18
34.90
26.98
19.23
13.20
9.93
9.64
11.59
14.37
16.40
16.52
14.36
10.29
5.13
-0.19
-5.10
-9.41
-13.44
-17.84
-23.45
-30.94
-40.33
-50.61
-59.66
-64.71
-63.25
-54.09
-37.96
-17.51
3.53
21.59
34.27
40.76
41.69
38.46
32.69
25.89
19.39
14.34
11.54
11.22
12.91
15.42
17.34
17.45
15.24
10.92
5.29
-0.70
-6.24
-10.97
-15.06
-19.14
-24.18
-31.13
-40.28
-50.87
-60.82
-67.14
-66.97
-58.75
-43.02
-22.44
-0.97
17.47
30.19
36.28
36.47
32.43
26.12
19.25
13.14
8.70
6.42
6.33
7.96
10.39
12.48
13.20
11.95
8.68
3.94
-1.51
-6.98
-12.31
-17.94
-24.74
-33.43
-43.94
-54.96
-63.96
-68.00
-64.78
-53.66
-36.10
-15.37
4.59
20.40
30.13
33.62
32.06
27.27
21.09
14.97
9.93
6.62
5.35
6.02
8.02
10.38
11.94
11.82
9.70
5.90
1.15
-3.80
-8.57
-13.33
-18.80
-25.82
-34.89
-45.55
-56.14
-63.98
-66.13
-60.48
-46.71
-26.73
-4.15
16.84
32.85
42.23
45.20
43.30
38.55
32.68
26.99
22.42
19.68
19.19
20.84
23.83
26.75
28.09
26.79
22.71
16.64
9.87
3.57
-1.67
-6.12
-10.75
-16.76
-25.01
-35.39
-46.54
-55.94
-60.57
-57.93
-47.07
-29.16
-7.19
14.92
33.62
46.65
53.40
54.63
51.81
46.58
40.46
34.83
30.82
29.22
30.10
32.71
35.54
36.85
35.35
30.71
23.68
15.71
8.27
2.21
-2.53
-6.86
-12.06
-19.25
-28.91
-40.52
-52.51
-62.47
-67.66
-65.84
-56.07
-39.18
-17.77
4.54
24.18
38.57
46.64
48.75
46.25
40.85
34.26
27.94
23.09
20.44
20.15
21.63
23.74
25.06
24.48
21.53
16.55
10.44
4.24
-1.31
-6.03
-10.33
-15.05
-21.17
-29.38
-39.68
-50.98
-61.03
-66.89
-65.80
-56.30
-38.98
-16.55
6.98
27.54
42.17
49.68
50.59
46.53
39.63
31.98
25.33
21.00
19.63
21.11
24.46
28.11
30.36
29.95
26.48
20.47
13.04
5.46
-1.38
-7.30
-12.81
-18.93
-26.74
-36.76
-48.42
-59.81
-67.97
-69.74
-63.00
-47.59
-25.65
-1.04
21.96
39.87
50.91
55.04
53.45
47.88
40.20
32.18
25.41
21.16
20.07
21.88
25.38
28.79
30.37
29.05
24.68
18.08
10.54
3.26
-3.04
-8.43
-13.66
-19.88
-28.06
-38.42
-49.95
-60.31
-66.36
-65.22
-55.35
-37.46
-14.43
9.52
30.25
44.92
52.55
53.81
50.34
44.00
36.50
29.29
23.62
20.40
19.95
21.78
24.58
26.72
26.79
24.22
19.38
13.32
7.21
1.88
-2.53
-6.51
-10.99
-17.03
-25.36
-35.97
-47.64
-57.99
-63.87
-62.43
-52.25
-34.17
-11.20
12.39
32.51
46.40
53.25
53.87
50.01
43.61
36.41
29.92
25.37
23.58
24.67
27.91
31.78
34.54
34.77
31.91
26.35
19.17
11.67
4.82
-0.90
-5.70
-10.36
-15.94
-23.42
-33.11
-44.12
-54.33
-60.67
-60.26
-51.54
-35.17
-14.02
7.69
25.83
37.57
42.07
40.21
33.95
25.52
16.95
9.85
5.38
4.12
5.95
9.86
14.21
17.10
17.06
13.48
6.84
-1.57
-10.23
-17.94
-24.37
-30.08
-36.25
-44.10
-54.02
-65.12
-75.04
-80.59
-78.93
-68.71
-51.01
-29.08
-7.37
9.97
20.37
23.47
20.74
14.61
7.47
1.03
-3.87
-6.99
-8.41
-8.26
-6.74
-4.22
-1.24
1.47
3.22
3.49
2.16
-0.67
-4.89
-10.57
-17.91
-26.84
-36.48
-44.90
-49.40
-47.39
-37.53
-20.50
0.96
22.92
41.58
54.44
60.83
61.69
58.82
54.03
48.72
43.69
39.31
35.76
33.03
30.98
29.26
27.41
25.00
21.75
17.64
12.84
7.51
1.59
-5.39
-14.10
-24.96
-37.52
-50.00
-59.50
-62.76
-57.46
-43.42
-22.91
-0.20
20.01
34.04
40.32
39.50
33.79
