1574758177.00
64.000000
-0.00
-0.00
-0.00
-0.00
-0.00
-0.00
-0.00
-0.00
-0.00
-0.00
0.00
0.01
0.01
-0.00
-0.03
-0.05
-0.05
0.00
0.13
0.36
0.66
1.01
1.37
1.72
2.06
2.40
2.79
3.24
3.80
4.42
5.06
5.66
6.20
6.68
7.15
7.68
8.31
9.14
10.09
11.04
11.88
12.56
13.14
13.76
14.65
15.96
17.91
20.32
22.90
25.38
27.58
29.57
31.68
34.32
37.81
42.54
48.15
54.10
59.83
64.97
69.58
74.14
79.34
85.71
93.76
103.00
112.62
121.73
129.77
136.75
143.30
150.75
157.77
166.64
177.95
191.79
206.97
220.57
228.25
225.36
208.53
176.87
132.76
80.05
23.07
-34.94
-92.44
-149.16
-205.23
-260.37
-313.74
-363.87
-409.83
-450.91
-486.50
-515.74
-537.23
-549.22
-549.96
-538.37
-514.21
-478.67
-433.88
-382.45
-327.02
-269.84
-212.63
-156.66
-102.95
-52.37
-5.91
35.58
71.42
101.35
125.50
144.38
158.70
169.17
176.40
180.80
182.65
182.17
179.64
175.41
169.87
163.44
156.46
149.17
141.70
134.13
126.50
118.84
111.22
103.71
96.38
89.28
82.45
75.90
69.66
63.71
58.09
52.79
47.83
43.20
38.90
34.93
31.28
27.93
24.89
22.14
19.68
17.50
15.61
13.99
12.62
11.51
10.64
10.00
9.55
9.28
9.19
9.25
9.44
9.73
10.14
10.64
11.23
11.87
12.57
13.34
14.18
15.06
16.00
16.99
17.99
18.95
19.76
20.29
20.35
19.78
18.38
16.07
12.82
8.67
3.73
-1.88
-7.86
-13.82
-19.34
-23.97
-27.21
-28.65
-28.00
-25.20
-20.42
-14.03
-6.49
1.88
10.23
17.91
24.42
29.38
32.56
33.86
33.20
30.87
27.33
23.13
19.07
15.86
14.04
13.74
14.71
16.42
18.30
19.85
20.80
21.11
20.77
19.54
16.89
12.03
4.23
-6.81
-20.61
-35.90
-50.88
-63.84
-73.68
-80.34
-84.82
-88.56
-92.61
-97.08
-100.95
-102.53
-100.48
-94.52
-86.01
-77.55
-71.93
-70.90
-74.56
-81.68
-90.24
-98.08
-102.89
-102.52
-95.43
-81.37
-61.74
-39.28
-16.79
4.63
26.30
51.10
80.87
113.94
144.67
165.32
169.53
155.15
124.80
82.84
36.11
-8.20
-43.93
-66.82
-75.36
-71.11
-57.73
-38.68
-14.85
16.41
59.15
114.96
179.86
244.07
295.36
324.20
327.77
310.30
279.80
243.24
203.51
159.32
107.58
46.18
-23.95
-98.26
-169.23
-228.37
-268.52
-285.98
-281.72
-261.42
-233.80
-207.82
-189.67
-180.65
-178.13
-177.61
-175.11
-168.64
-158.01
-143.27
-123.34
-95.72
-58.11
-12.14
35.32
74.00
95.17
96.92
86.71
78.99
89.14
126.45
188.32
261.32
327.66
373.15
392.63
390.56
376.85
356.74
334.80
312.87
290.80
268.13
245.78
226.27
213.91
208.46
206.84
204.95
198.33
183.88
160.89
132.23
102.16
74.37
50.16
28.54
7.25
-16.77
-45.77
-79.92
-116.95
-153.31
-185.61
-212.33
-233.99
-252.70
-271.61
-293.60
-320.27
-351.60
-386.57
-423.48
-460.03
-492.79
-517.29
-529.57
-528.15
-515.47
-497.62
-482.01
-473.76
-473.12
-475.22
-472.80
-460.27
-436.57
-405.17
-371.50
-339.76
-310.90
-283.12
-253.94
-222.43
-189.87
-158.80
-130.93
-105.69
-80.29
-51.15
-15.81
25.47
69.73
112.51
149.86
180.12
204.41
225.96
248.41
274.36
304.71
338.90
375.45
412.19
445.92
472.29
486.36
484.05
463.70
426.88
377.36
319.04
254.08
182.75
105.50
25.62
-49.49
-109.94
-147.24
-158.34
-147.14
-122.57
-94.31
-68.62
-46.57
-24.98
0.88
34.63
77.16
126.35
177.35
223.42
256.98
271.51
263.72
235.30
192.90
146.13
104.51
74.59
58.65
55.00
59.64
67.82
75.08
77.72
73.15
60.41
41.26
20.58
6.00
5.72
25.29
64.26
115.01
164.67
200.02
212.71
202.36
175.95
143.46
112.61
85.46
58.87
28.01
-9.37
-50.88
-90.67
-122.78
-144.28
-156.33
-162.53
-166.14
-168.24
-167.84
-163.68
-156.46
-149.74
-148.73
-158.01
-178.71
-207.67
-238.46
-263.85
-278.43
-280.05
-269.69
-250.30
-225.16
-196.71
-166.21
-134.15
-101.01
-67.85
-36.43
-8.70
13.90
31.02
43.42
52.40
59.15
64.49
68.98
73.40
78.99
87.37
99.88
116.86
137.22
158.67
178.41
194.16
204.94
211.19
214.33
215.97
217.30
218.65
219.55
218.90
215.41
207.92
195.62
178.27
156.21
130.33
101.99
72.78
44.37
18.41
-3.57
-20.29
-30.87
-35.11
-33.48
-26.91
-16.43
-2.91
12.72
28.81
42.67
51.03
51.30
43.17
29.38
14.99
5.45
4.25
11.58
24.68
39.30
51.75
60.11
64.24
64.97
62.96
58.19
50.05
37.99
22.09
3.28
-16.89
-36.66
-54.57
-69.86
-82.66
-93.81
-104.44
-115.40
-126.75
-137.66
-146.80
-153.03
-156.06
-156.61
-155.99
-154.99
-152.83
-146.93
-134.00
-112.10
-82.48
-50.08
-21.66
-2.62
5.84
7.61
9.94
19.87
40.83
71.09
104.79
134.84
155.94
166.22
166.94
161.00
151.19
139.28
126.12
112.04
97.57
83.37
69.94
57.25
44.63
31.24
16.59
0.87
-15.14
-30.54
-44.90
-58.22
-70.78
-82.60
-93.24
-101.93
-108.01
-111.44
-112.96
-114.06
-116.37
-121.16
-128.84
-138.56
-148.21
-154.78
-155.20
-147.16
-129.84
-104.17
-72.45
-37.79
-3.35
28.01
54.01
72.95
83.84
86.61
82.19
72.54
60.20
47.75
37.26
29.97
26.32
26.18
29.18
34.72
41.93
49.42
55.40
57.92
55.52
47.85
35.92
21.91
8.42
-2.36
-9.37
-12.88
-14.13
-14.58
-15.23
-16.16
-16.76
-16.32
-14.73
-12.71
-11.64
-12.62
-15.91
-20.40
-24.00
-24.48
-20.41
-11.86
-0.47
11.23
20.77
26.69
29.07
29.34
29.67
31.91
36.84
43.85
51.08
56.03
56.24
50.03
37.10
18.79
-2.10
-22.11
-38.23
-49.14
-55.84
-61.12
-68.50
-80.47
-96.76
-113.73
-125.51
-126.26
-112.83
-86.39
-52.09
-17.22
11.28
28.95
34.74
30.79
21.12
10.37
2.34
-0.72
1.46
7.57
15.31
22.31
27.00
28.97
28.79
27.12
24.27
20.02
14.30
7.55
0.56
-5.65
-10.65
-14.80
-19.02
-24.18
-30.58
-37.47
-43.53
-47.49
-48.90
-48.57
-48.31
-50.10
-54.93
-62.12
-69.47
-74.03
-73.47
-67.02
-55.76
-42.15
-28.86
-17.84
-9.73
-4.02
0.35
4.34
8.53
12.99
17.61
22.24
26.71
30.89
34.49
37.20
38.59
38.29
36.01
31.59
25.12
16.87
7.21
-3.46
-14.76
-26.18
-36.97
-45.99
-51.95
-53.76
-50.97
-43.93
-33.69
-21.64
-9.13
2.69
12.80
20.26
24.23
24.21
20.38
13.72
5.91
-1.11
-5.62
-6.50
-3.46
3.01
11.76
21.28
30.11
37.15
41.79
43.99
44.20
43.23
42.17
42.25
44.57
49.93
58.60
70.33
84.52
100.39
117.12
133.82
149.46
162.93
173.32
180.17
183.64
184.43
183.50
181.65
179.48
177.39
175.68
174.36
172.91
169.87
162.90
149.35
127.42
97.24
61.27
23.72
-10.77
-38.78
-58.99
-71.99
-79.54
-83.53
-85.42
-86.37
-87.30
-88.79
-90.38
-90.18
-85.61
-75.02
-59.63
-44.17
-35.46
-39.24
-57.03
-84.95
-115.11
-139.09
-151.25
-150.71
-140.89
-127.78
-117.79
-116.30
-126.66
-149.59
-182.77
-220.78
-256.08
-280.96
-289.99
-281.72
-258.96
-227.38
-193.30
-161.78
-135.65
-116.03
-102.95
-95.96
-94.12
-95.69
-98.18
-98.86
-95.86
-88.94
-79.57
-70.18
-62.81
-58.29
-55.98
-54.49
-52.66
-50.40
-48.55
-48.52
-51.27
-56.65
-63.21
-68.51
-69.77
-64.66
-52.18
-33.10
-9.95
13.73
34.66
51.03
63.26
73.59
84.96
99.50
117.49
137.35
156.39
172.25
183.73
190.95
194.57
194.85
191.10
182.08
166.96
146.27
122.11
97.50
75.18
56.44
41.03
27.78
15.64
4.47
-5.20
-12.84
-18.76
-23.90
-29.15
-34.44
-38.45
-39.17
-34.95
-25.32
-11.02
6.57
26.20
46.99
68.19
88.69
106.86
120.92
129.56
132.47
130.41
124.81
117.16
108.49
99.23
89.42
79.18
69.08
60.52
55.42
55.62
62.00
73.75
88.40
102.38
112.30
116.00
113.23
105.41
94.77
83.35
72.22
61.43
50.22
37.64
23.04
6.45
-11.42
-29.29
-45.65
-59.28
-69.74
-77.61
-84.40
-92.05
-102.21
-115.54
-131.44
-148.13
-163.24
-174.54
-180.50
-180.57
-175.14
-165.27
-152.34
-137.82
-123.08
-109.27
-97.28
-87.69
-80.78
-76.55
-74.62
-74.28
-74.48
-73.98
-71.58
-66.44
-58.30
-47.70
-35.99
-25.00
-16.65
-12.27
-12.15
-15.32
-19.72
-22.85
-22.57
-17.82
-8.89
2.68
14.71
24.96
31.67
33.87
31.46
25.15
16.31
6.71
-1.80
-7.71
-10.23
-9.44
-6.30
-2.40
0.59
1.34
-0.70
-5.16
-11.02
-17.13
-22.78
-27.98
-33.33
-39.37
-45.94
-51.83
-55.08
-53.77
-46.87
-34.86
-19.54
-3.39
11.28
22.85
30.66
34.69
35.30
32.97
28.35
22.30
16.05
11.00
8.46
9.26
13.34
19.58
25.95
30.05
29.83
24.40
14.33
1.48
-11.66
-22.83
-30.64
-34.78
-35.69
-34.08
-30.39
-24.67
-16.60
-5.98
6.91
21.09
35.06
47.26
56.63
63.08
67.45
71.09
75.26
80.56
86.96
94.11
101.69
109.34
116.07
119.67
117.06
105.70
85.28
58.57
30.41
5.31
-14.85
-31.51
-47.84
-65.78
-83.73
-96.61
-98.23
-84.81
-57.15
-20.60
17.46
50.54
75.10
90.74
98.94
101.55
99.76
94.10
85.00
73.39
60.96
49.80
41.52
36.63
34.27
32.74
30.29
25.97
19.96
13.25
7.13
2.60
0.12
-0.27
1.24
4.36
8.74
13.84
19.05
23.70
27.15
28.91
28.71
26.55
23.00
19.40
17.81
20.55
29.39
44.72
65.24
88.32
110.91
130.78
147.26
161.35
175.00
189.91
206.30
222.43
234.97
240.07
234.92
218.87
193.55
162.29
128.63
95.13
62.70
30.72
-2.30
-38.01
-77.64
-121.40
-167.96
-214.20
-255.47
-286.69
-304.00
-306.25
-295.54
-276.38
-254.00
-232.59
-214.31
-199.45
-187.31
-177.07
-168.21
-160.39
-153.20
-146.19
-138.90
-131.23
-123.25
-114.92
-105.91
-95.48
-82.87
-67.74
-50.45
-32.15
-14.37
1.44
14.29
23.89
30.66
35.51
39.60
43.87
48.76
54.02
58.87
62.59
64.97
66.82
69.59
75.10
84.53
97.91
113.59
128.22
137.08
134.94
117.54
83.43
35.35
-19.67
-71.97
-112.34
-135.07
-139.73
-130.57
-114.12
-96.34
-80.66
-67.89
-57.38
-48.53
-41.53
-36.99
-35.13
-35.01
-34.77
-32.48
-27.12
-19.06
-9.72
-0.87
6.37
11.86
16.23
20.37
24.76
29.26
33.08
35.26
35.03
32.21
27.51
22.45
19.07
19.26
24.07
32.99
43.96
53.86
59.56
59.00
51.73
38.89
22.50
4.80
-12.29
-27.39
-39.66
-48.98
-55.96
-62.12
-69.57
-80.36
-95.44
-113.67
-131.47
-143.47
-144.21
-130.39
-102.73
-66.23
-28.83
1.43
19.24
23.68
17.89
7.11
-3.73
-11.68
-15.81
-16.43
-13.83
-7.90
1.51
13.77
27.07
38.81
46.55
49.02
46.72
41.54
35.98
32.06
30.51
30.63
30.61
28.39
22.45
12.45
-0.60
-14.75
-27.84
-38.11
-44.56
-46.83
-45.02
-39.52
-30.93
-20.01
-7.59
5.51
18.54
30.82
41.60
50.13
55.84
58.63
59.17
58.63
58.29
58.93
60.58
62.65
64.46
65.67
66.36
66.67
66.48
65.31
62.51
57.82
51.57
44.74
38.47
33.59
30.25
27.84
25.37
21.92
17.03
10.79
3.79
-3.14
-9.21
-13.95
-17.22
-19.25
-20.39
-20.97
-21.18
-20.99
-20.22
-18.69
-16.21
-12.64
-7.95
-2.28
4.00
10.28
15.72
19.50
20.98
19.98
16.79
12.17
7.07
2.35
-1.37
-3.93
-5.48
-6.26
-6.35
-5.62
-3.83
-0.94
2.62
5.84
7.42
6.07
1.08
-7.40
-18.26
-29.60
-39.13
-44.78
-45.16
-40.03
-30.37
-18.14
-5.69
4.84
12.07
15.54
15.55
12.88
8.51
3.37
-1.74
-6.17
-9.51
-11.54
-12.29
-11.96
-10.84
-9.19
-7.29
-5.32
-3.53
-2.30
-2.14
-3.69
-7.50
-13.70
-21.77
-30.39
-37.69
-41.66
-40.90
-34.97
-24.64
-11.60
1.98
14.07
23.10
28.26
29.52
27.54
23.49
18.66
14.16
10.67
8.43
7.26
6.82
6.79
6.91
6.97
6.73
6.02
4.76
3.09
1.31
-0.32
-1.74
-3.09
-4.59
-6.27
-7.66
-7.85
-5.79
-0.75
7.18
16.96
26.85
34.96
39.91
41.14
38.94
34.16
27.73
20.41
12.76
5.24
-1.57
-7.01
-10.52
-12.00
-11.95
-11.33
-11.20
-12.28
-14.70
-18.05
-21.65
-25.04
-28.05
-30.70
-32.89
-34.21
-33.90
-31.23
-25.91
-18.37
-9.69
-1.31
5.57
10.33
12.98
14.08
14.22
13.81
13.02
11.85
10.40
8.99
8.10
8.05
8.79
9.75
10.05
8.88
5.80
0.89
-5.39
-12.46
-19.76
-26.79
-32.94
-37.41
-39.33
-37.98
-33.30
-25.98
-17.44
-9.29
-2.82
1.45
3.75
4.80
5.34
5.73
5.96
5.74
4.80
3.14
1.01
-1.22
-3.24
-4.92
-6.31
-7.57
-8.89
-10.42
-12.25
-14.40
-16.83
-19.39
-21.84
-23.83
-24.82
-24.28
-21.74
-17.03
-10.43
-2.66
5.29
12.48
18.30
22.56
25.37
26.98
27.58
27.34
26.46
25.32
24.49
24.47
25.52
27.43
29.58
31.22
31.74
30.86
28.62
25.20
20.74
15.35
9.29
3.16
-2.01
-5.10
-5.32
-2.56
2.59
9.16
16.19
22.92
28.68
32.61
33.69
30.95
24.01
13.56
1.34
-10.14
-18.32
-21.19
-17.74
-8.05
6.66
24.31
42.21
57.63
68.37
73.22
72.13
66.00
56.34
44.82
33.13
22.82
15.23
11.23
10.96
13.71
18.02
22.13
24.55
24.48
21.95
17.68
12.60
7.52
2.92
-1.00
-4.23
-6.81
-8.77
-10.19
-11.18
-11.92
-12.65
-13.60
-14.92
-16.68
-18.88
-21.56
-24.73
-28.41
-32.36
-36.03
-38.55
-38.96
-36.55
-31.27
-23.84
-15.51
-7.69
-1.43
2.79
5.01
5.58
4.96
3.54
1.68
-0.30
-2.22
-4.04
-5.96
-8.24
-11.11
-14.47
-18.01
-21.33
-24.17
-26.63
-29.13
-32.15
-36.03
-40.70
-45.65
-49.98
-52.70
-52.96
-50.22
-44.43
-36.08
-26.12
-15.71
-6.04
1.95
7.76
11.30
12.87
13.00
12.28
11.21
10.19
9.42
8.93
8.64
8.31
7.65
6.35
4.20
1.16
-2.68
-7.08
-11.74
-16.32
-20.35
-23.28
-24.45
-23.30
-19.57
-13.53
-5.94
2.09
9.44
15.32
19.40
21.73
22.62
22.45
21.60
20.41
19.12
17.85
16.59
15.15
13.27
10.72
7.44
3.55
-0.54
-4.32
-7.17
-8.57
-8.25
-6.35
-3.47
-0.61
1.15
0.95
-1.50
-5.74
-10.71
-15.04
-17.47
-17.20
-14.18
-9.03
-2.88
2.99
7.55
10.23
10.99
10.23
8.57
6.61
4.81
3.39
2.31
1.31
-0.05
-2.15
-5.17
-8.99
-13.17
-17.12
-20.25
-22.19
-22.73
-21.90
-19.83
-16.68
-12.59
-7.63
-1.83
4.75
11.82
18.78
24.62
28.28
28.85
26.06
20.34
12.71
4.51
-3.04
-9.07
-13.33
-16.13
-18.19
-20.41
-23.51
-27.73
-32.70
-37.59
-41.54
-44.17
-45.65
-46.63
-47.66
-48.72
-49.03
-47.32
-42.44
-33.88
-21.93
-7.42
8.68
25.65
42.86
59.56
74.70
86.86
94.87
98.30
97.82
94.99
91.55
88.74
86.79
85.13
82.93
79.72
75.71
71.57
67.98
65.19
62.95
60.76
58.43
56.29
55.15
55.77
58.30
61.90
64.99
65.82
63.28
57.43
49.42
40.97
33.52
27.54
22.52
17.31
10.95
3.26
-5.06
-12.81
-19.13
-23.88
-27.70
-31.50
-35.76
-40.30
-44.50
-47.82
-50.18
-51.84
-52.95
-53.23
-52.15
-49.53
-46.05
-43.34
-43.18
-46.42
-52.27
-58.49
-62.49
-62.65
-59.24
-54.21
-50.19
-49.16
-51.73
-57.27
-64.53
-72.48
-80.54
-88.47
-96.04
-102.72
-107.84
-110.80
-111.47
-110.21
-107.66
-104.42
-100.73
-96.49
-91.38
-85.01
-77.05
-67.20
-55.28
-41.27
-25.53
-8.83
7.79
23.37
37.38
49.89
61.38
72.43
83.22
93.37
102.00
108.10
111.03
110.79
107.96
103.44
97.98
91.93
85.30
77.89
69.50
60.13
50.07
39.66
29.37
19.84
12.00
7.11
6.41
10.64
19.40
30.96
42.62
51.46
55.33
53.46
46.75
37.41
28.30
22.02
20.25
23.32
30.28
39.12
47.46
53.21
55.29
54.05
51.21
49.03
49.45
53.36
60.32
69.01
78.07
86.76
95.11
103.47
112.01
120.56
128.85
137.15
146.32
157.16
169.36
180.65
186.95
183.84
168.61
141.91
107.90
72.81
42.51
20.17
5.35
-5.31
-16.33
-31.26
-51.52
-76.37
-103.71
-131.34
-157.54
-181.02
-200.36
-213.83
-219.61
-216.73
-205.80
-189.37
-171.16
-154.74
-142.42
-134.53
-129.64
-125.42
-119.62
-110.88
-98.99
-84.69
-69.22
-53.82
-39.23
-25.52
-12.26
1.11
14.79
28.18
39.82
47.84
50.51
47.13
38.40
26.32
13.64
2.87
-4.42
-7.98
-8.64
-7.68
-6.12
-4.43
-2.72
-1.15
-0.41
-1.50
-5.34
-12.04
-20.65
-29.57
-37.25
-42.85
-46.47
-48.77
-50.38
-51.35
-51.19
-49.20
-44.96
-38.74
-31.45
-24.43
-19.02
-16.10
-15.93
-18.11
-21.72
-25.74
-29.33
-32.23
-34.66
-37.12
-40.10
-43.72
-47.83
-52.15
-56.56
-61.21
-66.38
-72.27
-78.83
-85.68
-92.26
-97.96
-102.06
-103.79
-102.28
-96.73
-86.68
-72.34
-54.67
-35.26
-15.88
1.91
17.18
29.64
39.46
46.92
52.32
55.96
58.13
59.22
59.60
59.41
58.47
56.35
52.54
46.93
40.04
33.02
27.29
23.99
23.41
24.96
27.36
29.24
29.80
29.16
28.37
28.86
31.77
37.30
44.63
52.11
57.89
60.59
59.74
55.81
49.91
43.31
36.92
31.16
25.95
20.97
15.95
10.73
5.40
0.11
-4.96
-9.79
-14.56
-19.59
-25.18
-31.41
-38.08
-44.76
-50.89
-55.93
-59.48
-61.44
-62.16
-62.43
-63.43
-66.34
-71.79
-79.36
-87.54
-94.17
-97.29
-96.03
-91.08
-84.45
-78.57
-75.16
-74.57
-75.73
-77.00
-77.08
-75.70
-73.55
-71.75
-71.10
-71.54
-72.25
-72.20
-70.83
-68.41
-65.85
-64.12
-63.61
-63.75
-63.27
-60.72
-55.10
-46.32
-35.14
-22.93
-11.08
-0.66
7.89
14.62
19.86
23.98
27.22
29.66
31.33
32.28
32.71
32.96
33.35
34.02
34.75
35.00
34.10
31.54
27.21
21.44
14.85
8.08
1.53
-4.62
-10.27
-15.08
-18.31
-19.00
-16.32
-10.08
-0.87
10.07
21.31
31.68
40.54
47.76
53.46
57.85
61.13
63.61
65.71
67.96
70.79
74.32
78.31
82.20
85.31
87.00
86.69
84.05
78.97
71.67
62.80
53.30
44.11
35.98
29.17
23.45
18.31
13.33
8.42
4.06
1.04
0.22
2.17
6.90
13.83
21.93
30.03
37.07
42.39
45.68
46.88
46.13
43.63
39.77
35.10
30.38
26.48
24.20
24.07
26.21
30.37
36.00
42.36
48.69
54.13
57.82
59.03
57.22
52.42
45.15
36.49
27.82
20.44
15.40
13.26
14.17
17.96
24.16
32.02
40.35
47.71
52.56
53.75
50.80
44.06
34.57
23.79
13.46
5.27
0.59
-0.03
2.81
7.26
10.80
11.06
6.93
-1.12
-11.32
-21.55
-30.33
-37.31
-43.18
-49.03
-55.64
-63.12
-70.92
-78.08
-83.46
-86.15
-85.44
-81.09
-73.39
-63.09
-51.36
-39.44
-28.52
-19.54
-13.13
-9.54
-8.61
-9.67
-11.73
-13.64
-14.43
-13.59
-11.08
-7.30
-2.83
1.73
5.81
8.91
10.56
10.38
8.17
4.01
-1.57
-7.50
-12.12
-13.31
-9.05
2.00
19.85
42.98
68.42
92.50
111.46
122.26
123.13
113.90
96.10
72.79
47.83
24.95
6.74
-5.95
-13.84
-18.41
-21.02
-22.32
-22.36
-21.20
-19.48
-18.44
-19.56
-23.94
-31.85
-42.53
-54.54
-66.09
-75.39
-81.04
-82.30
-79.20
-72.61
-63.99
-55.01
-46.95
-40.61
-36.28
-33.92
-33.40
-34.29
-35.69
-36.25
-34.55
-29.82
-22.54
-14.49
-8.03
-5.09
-6.25
-10.43
-15.33
-18.32
-17.31
-11.11
0.53
17.21
38.11
62.13
87.95
114.18
139.45
162.63
182.90
199.72
212.73
221.69
226.47
227.22
224.60
219.82
214.43
209.83
206.60
204.15
200.76
194.21
182.75
165.74
143.86
118.65
91.74
64.36
37.29
11.18
-13.20
-35.12
-54.20
-70.76
-85.63
-99.47
-112.02
-121.81
-126.78
-125.43
-117.88
-106.19
-93.56
-83.02
-76.17
-72.82
-71.46
-70.27
-68.03
-64.31
-59.32
-53.35
-46.62
-39.36
-32.20
-26.46
-23.83
-25.73
-32.43
-42.59
-53.48
-61.83
-64.96
-61.64
-52.30
-38.73
-23.36
-8.55
4.06
13.92
21.46
27.58
32.78
36.38
36.34
30.04
15.78
-5.65
-30.45
-52.66
-66.35
-67.92
-57.57
-39.06
-18.11
-0.27
10.71
13.39
8.28
-2.97
-18.47
-36.40
-55.34
-74.07
-91.66
-107.39
-120.77
-131.46
-139.18
-143.67
-144.53
-141.26
-133.28
-120.23
-102.20
-80.08
-55.68
-31.50
-10.21
6.04
16.22
20.57
20.28
16.88
11.75
5.90
0.05
-5.08
-8.65
-9.83
-8.08
-3.36
3.83
12.70
22.38
32.02
40.81
47.86
52.30
53.39
50.82
44.75
35.87
25.09
13.51
2.30
-7.22
-13.73
-16.19
-14.11
-7.83
1.61
12.71
23.94
34.09
42.36
48.37
52.02
53.35
52.46
49.50
44.69
38.50
31.77
25.72
21.76
20.91
23.37
28.34
34.40
40.23
45.14
49.20
52.82
56.12
58.66
59.54
58.01
53.92
47.92
41.22
35.20
31.05
29.54
30.97
35.05
40.91
47.27
52.76
56.37
57.53
56.08
51.86
44.60
34.07
20.61
5.48
-9.05
-20.35
-26.31
-26.08
-20.34
-10.90
-0.01
10.29
18.63
24.21
26.69
25.95
22.09
15.55
7.29
-1.24
-8.36
-12.52
-12.87
-9.56
-3.70
2.99
8.78
12.58
14.10
13.83
12.49
10.60
8.17
4.83
0.20
-5.72
-12.45
-19.21
-25.35
-30.60
-35.15
-39.37
-43.50
-47.44
-50.81
-53.17
-54.27
-54.14
-53.02
-51.29
-49.28
-47.20
-44.99
-42.26
-38.37
-32.66
-24.77
-15.01
-4.40
5.60
13.57
18.62
20.67
20.31
18.48
16.07
13.70
11.62
9.91
8.52
7.41
6.59
5.99
5.46
4.79
3.73
2.18
0.21
-1.94
-4.00
-5.95
-8.12
-11.18
-15.82
-22.27
-30.01
-37.64
-43.39
-45.62
-43.61
-37.72
-29.33
-20.25
-12.08
-5.81
-1.67
0.58
1.42
1.28
0.55
-0.38
-1.00
-0.85
0.33
2.43
4.94
7.17
8.58
8.92
8.36
7.14
5.37
2.80
-1.04
-6.69
-14.24
-23.09
-31.90
-38.74
-41.62
-39.05
-30.59
-17.16
-0.93
15.21
28.47
36.88
39.75
37.59
31.82
24.20
16.35
9.55
4.68
2.28
2.61
5.65
11.16
18.63
27.37
36.49
44.98
51.77
55.83
56.43
53.29
46.66
37.37
26.60
15.79
6.32
-0.58
-4.04
-3.69
0.30
7.05
15.16
22.91
28.69
31.45
30.93
27.69
22.80
17.43
12.36
7.88
3.80
-0.30
-4.87
-10.21
-16.42
-23.43
-31.00
-38.81
-46.48
-53.70
-60.36
-66.74
-73.30
-80.51
-88.36
-96.00
-101.73
-103.27
-98.51
-86.34
-67.20
-43.15
-17.35
6.83
26.71
40.85
49.35
53.55
55.59
57.70
61.59
67.91
76.13
84.89
92.63
98.32
101.83
103.86
105.43
107.24
109.32
111.19
112.22
112.11
110.93
108.94
106.20
102.45
97.30
90.69
83.25
76.32
71.52
70.02
72.01
76.47
81.65
85.65
87.17
85.78
81.77
75.76
68.40
60.23
51.77
43.62
36.38
30.48
25.97
22.47
19.31
15.90
11.92
7.38
2.49
-2.54
-7.66
-12.98
-18.71
-24.99
-31.84
-39.03
-46.05
-52.14
-56.38
-57.98
-56.58
-52.40
-46.29
-39.46
-33.21
-28.57
-26.18
-26.20
-28.36
-31.97
-36.11
-39.79
-42.26
-43.16
-42.60
-41.06
-39.08
-37.06
-35.18
-33.40
-31.67
-29.95
-28.31
-26.90
-25.85
-25.33
-25.48
-26.37
-27.90
-29.70
-31.21
-31.81
-31.12
-29.15
-26.33
-23.39
-21.10
-19.95
-20.00
-20.83
-21.75
-22.01
-20.99
-18.41
-14.36
-9.30
-3.92
0.95
4.58
6.49
6.58
5.13
2.70
0.05
-2.14
-3.34
-3.43
-2.61
-1.35
-0.12
0.85
1.70
2.86
4.87
8.03
12.12
16.48
20.11
22.10
21.90
19.51
15.43
10.36
4.90
-0.62
-6.21
-11.97
-17.88
-23.57
-28.40
-31.61
-32.75
-31.85
-29.50
-26.73
-24.69
-24.60
-27.57
-34.49
-45.70
-60.65
-77.61
-93.76
-105.74
-110.56
-106.41
-93.19
-72.30
-45.97
-16.42
14.79
46.81
78.84
109.49
136.31
156.11
165.98
164.57
152.95
134.43
113.43
93.90
78.09
66.20
56.91
48.44
39.40
29.18
17.93
6.19
-5.47
-16.76
-27.71
-38.87
-51.23
-66.10
-84.63
-107.17
-132.80
-159.27
-183.40
-202.01
-212.91
-215.44
-210.58
-200.56
-188.14
-176.00
-166.25
-160.22
-158.25
-159.64
-162.75
-165.47
-165.82
-162.69
-156.21
-147.42
-137.65
-127.95
-118.75
-110.02
-101.75
-94.33
-88.52
-85.18
-84.77
-86.97
-90.64
-94.01
-95.06
-91.99
-83.62
-69.65
-50.79
-28.62
-5.31
16.77
35.57
49.79
59.11
64.32
67.09
69.40
72.92
78.38
85.33
92.43
98.00
100.70
99.98
96.03
89.41
80.78
70.60
59.31
47.46
35.90
25.72
17.96
13.37
12.21
14.31
19.18
26.10
34.12
41.99
48.20
51.25
49.96
43.95
33.87
21.34
8.51
-2.68
-11.16
-17.17
-22.05
-27.75
-35.99
-47.59
-62.20
-78.54
-94.82
-109.33
-120.70
-127.92
-130.29
-127.32
-118.87
-105.24
-87.23
-66.02
-42.93
-19.00
5.00
28.65
51.54
73.05
92.17
107.67
118.46
124.01
124.64
121.47
116.10
110.01
104.19
98.98
94.20
89.46
84.40
78.71
72.01
63.96
54.40
43.61
32.45
22.22
14.28
9.46
7.83
8.65
10.77
13.19
15.38
17.39
19.49
21.72
23.51
23.74
21.12
14.83
5.06
-6.91
-19.06
-29.32
-36.13
-38.77
-37.27
-32.17
-24.30
-14.69
-4.54
4.82
12.21
16.99
19.41
20.72
22.80
27.46
35.60
46.75
58.97
69.60
76.07
76.93
72.19
63.30
52.43
41.70
32.60
25.72
20.89
17.54
15.05
12.98
11.05
9.12
7.03
4.56
1.52
-2.13
-6.30
-10.86
-15.73
-21.00
-26.68
-32.53
-37.79
-41.40
-42.28
-39.88
-34.45
-26.85
-18.18
-9.20
-0.19
8.89
18.06
26.99
35.01
41.34
45.42
47.10
46.80
45.35
43.86
43.41
44.76
48.01
52.61
57.44
61.38
63.80
64.81
65.25
66.29
69.13
74.79
84.04
97.20
113.86
132.62
151.22
167.26
179.25
187.28
192.91
197.99
203.28
207.59
208.04
201.34
185.55
161.16
130.98
99.08
69.27
44.00
24.09
9.01
-2.36
-11.32
-19.09
-26.76
-35.20
-44.98
-56.03
-67.42
-77.38
-83.73
-84.48
-78.56
-66.23
-49.11
-29.72
-10.86
5.13
16.86
24.18
28.19
30.72
33.81
39.04
46.91
56.66
66.35
73.40
75.32
70.43
58.21
39.17
14.43
-15.02
-48.75
-86.79
-128.89
-173.60
-217.58
-255.85
-282.84
-294.02
-287.48
-264.66
-230.14
-190.46
-152.55
-122.35
-103.67
-97.66
-102.65
-114.63
-128.22
-138.25
-141.47
-137.87
-130.69
-125.15
-126.22
-136.56
-155.54
-179.77
-204.67
-226.32
-242.29
-251.67
-254.23
-249.84
-238.30
-219.79
-195.29
-166.76
-136.78
-107.85
-81.88
-60.08
-43.15
-31.57
-25.71
-25.73
-31.40
-41.78
-55.08
-68.74
-79.88
-85.75
-84.41
-75.13
-58.43
-35.85
-9.36
19.24
48.77
78.69
108.76
138.54
166.86
191.66
210.48
221.30
223.54
218.54
209.40
199.98
193.63
192.08
194.95
199.87
203.26
201.26
190.82
170.83
142.91
111.28
81.67
59.48
48.08
47.95
57.15
72.40
90.14
106.79
118.45
120.85
110.16
84.78
46.84
2.44
-40.08
-73.25
-93.37
-101.76
-103.67
-105.59
-112.22
-124.71
-140.47
-154.62
-162.05
-159.44
-146.30
-124.98
-99.59
-74.32
-51.73
-31.81
-12.23
10.24
37.92
70.81
106.51
141.05
170.23
190.70
200.35
198.30
184.58
160.05
126.41
86.29
43.19
1.36
-34.40
-59.43
-70.35
-66.39
-50.51
-29.08
-10.00
0.12
-1.47
-12.73
-27.85
-39.56
-41.43
-29.48
-2.87
36.06
82.00
127.67
165.32
189.06
196.67
190.21
174.72
155.78
137.24
120.25
104.04
87.36
69.77
51.81
34.46
18.37
3.48
-11.01
-26.24
-43.42
-63.36
-86.00
-109.81
-131.79
-147.86
-154.09
-148.12
-130.16
-102.93
-70.83
-38.52
-9.57
14.09
32.27
45.93
56.44
64.78
71.22
75.21
75.91
72.61
64.86
52.25
34.30
10.88
-16.87
-45.43
-68.77
-79.70
-72.71
-46.89
-7.14
37.07
75.06
98.88
105.69
97.73
80.22
58.62
36.59
15.86
-2.93
-18.99
-31.02
-37.88
-39.72
-38.58
-37.92
-41.07
-49.44
-61.75
-74.47
-83.40
-85.50
-80.10
-68.84
-54.59
-39.93
-26.15
-13.16
-0.11
13.53
27.31
39.87
49.60
55.62
58.33
59.33
60.49
63.00
66.77
70.62
73.27
74.28
74.33
74.62
75.70
76.51
74.57
67.18
53.17
33.91
13.06
-4.97
-17.03
-22.48
-23.14
-22.30
-23.20
-27.90
-37.08
-50.44
-67.25
-86.53
-106.79
-125.97
-141.81
-153.05
-160.29
-166.03
-173.53
-184.85
-199.54
-214.69
-226.27
-231.29
-229.26
-221.99
-212.05
-200.98
-188.63
-173.92
-156.44
-137.46
-119.40
-104.15
-91.46
-78.62
-61.89
-38.96
-10.87
17.92
41.40
55.00
57.70
52.36
44.08
37.75
36.25
40.09
48.31
59.69
73.52
89.60
107.70
127.06
146.44
164.43
179.85
192.00
200.74
206.49
210.10
212.73
215.42
218.74
222.59
226.09
227.96
226.95
222.38
214.30
203.53
191.39
179.26
168.25
158.84
150.57
142.28
132.66
120.73
106.43
90.53
74.33
58.97
45.07
32.61
21.06
9.86
-1.35
-12.48
-23.02
-32.24
-39.54
-44.68
-48.06
-50.50
-52.94
-55.89
-59.01
-61.05
-60.03
-53.69
-39.86
-17.09
14.85
54.28
97.47
139.13
173.77
197.47
209.22
211.21
207.73
203.43
201.62
203.50
208.47
215.05
221.75
227.38
230.91
231.33
227.63
219.19
206.16
189.59
171.16
152.50
134.65
117.66
100.70
82.53
62.04
38.71
12.66
-15.46
-44.80
-74.63
-104.42
-133.86
-162.70
-190.67
-217.59
-243.20
-267.27
-289.41
-309.21
-326.46
-341.92
-358.16
-379.15
-408.94
-448.93
-495.70
-540.42
-571.18
-577.39
-554.36
-505.73
-442.25
-377.63
-324.29
-290.49
-279.61
-290.89
-319.83
-357.98
-392.97
-410.19
-397.19
-349.24
-273.36
-187.16
-112.67
-67.39
-56.88
-73.18
-99.29
-117.24
-115.14
-90.48
-48.88
-0.58
43.04
71.78
77.91
57.24
9.99
-58.26
-137.13
-213.62
-275.41
-313.62
-324.34
-308.57
-271.12
-219.32
-161.36
-104.73
-54.58
-12.86
21.78
52.60
82.82
114.32
147.02
179.51
210.24
238.30
263.74
287.61
311.78
338.53
370.05
407.53
450.07
493.87
532.49
558.20
564.43
547.96
510.14
456.16
392.93
326.59
260.99
197.71
137.47
81.56
32.33
-7.66
-37.06
-56.64
-68.93
-76.94
-82.67
-86.55
-87.99
-86.83
-84.27
-82.43
-82.75
-84.11
-82.10
-70.45
-44.24
-3.10
47.19
96.20
132.89
150.32
148.40
133.45
114.63
99.40
90.44
85.56
80.19
70.62
55.97
38.37
21.44
8.76
2.81
4.57
13.42
26.83
40.60
49.76
50.52
41.88
26.02
7.03
-11.32
-27.12
-40.22
-50.69
-57.67
-59.39
-54.54
-43.95
-30.74
-18.73
-10.38
-5.46
-1.75
2.66
7.05
7.66
-0.79
-21.92
-55.05
-94.37
-130.46
-153.39
-155.89
-135.38
-94.39
-39.63
19.87
74.64
116.57
140.31
144.13
130.34
104.82
75.41
49.73
33.10
27.42
31.31
41.40
53.87
65.29
73.25
76.26
73.67
65.65
52.85
35.88
15.13
-9.23
-36.64
-65.67
-93.88
-118.46
-137.17
-149.27
-155.49
-157.46
-156.68
-154.13
-150.29
-145.69
-140.87
-136.13
-130.90
-123.39
-111.24
-92.74
-68.06
-39.38
-10.02
16.98
40.02
59.06
75.05
88.98
101.58
113.54
126.04
140.67
158.79
180.26
202.90
222.90
236.45
241.50
238.79
231.35
223.08
217.11
214.82
215.89
218.95
222.03
222.88
219.10
208.43
189.75
164.09
135.16
108.50
89.32
80.04
78.82
80.09
76.84
63.59
38.33
2.81
-39.11
-83.55
-128.02
-171.53
-213.52
-252.66
-286.60
-312.85
-330.27
-339.98
-344.99
-348.49
-351.92
-354.09
-351.73
-341.48
-321.69
-293.40
-259.37
-222.72
-185.84
-150.77
-120.47
-99.75
-94.80
-111.16
-151.12
-212.34
-288.72
-373.03
-459.48
-544.55
-625.46
-697.77
-753.99
-784.85
-782.71
-745.32
-677.36
-588.95
-491.89
-395.67
-305.51
-222.73
-147.05
-78.72
-19.36
28.82
64.61
88.80
104.18
114.25
121.79
127.86
131.74
131.95
127.65
119.76
111.15
105.93
107.84
118.96
138.90
165.06
193.92
222.49
249.46
275.65
303.52
336.02
375.24
421.15
470.78
518.43
556.67
578.35
578.76
557.31
518.18
469.41
420.61
379.90
351.35
333.37
319.57
301.65
273.18
232.21
181.72
127.58
75.59
29.13
-11.21
-46.34
-77.02
-102.71
-121.62
-131.54
-130.62
-118.01
-93.96
-59.93
-18.84
24.95
66.20
100.22
124.09
137.51
142.66
143.30
143.82
148.02
158.20
174.20
193.42
211.22
222.38
222.85
211.04
187.87
156.14
119.22
80.16
41.17
3.45
-32.85
-68.76
-106.18
-147.06
-192.21
-239.78
-285.12
-322.22
-346.02
-354.56
-349.59
-335.60
-317.41
-298.15
-278.33
-256.24
-229.10
-194.29
-149.92
-95.16
-30.56
41.36
115.38
183.86
238.23
271.65
281.65
271.48
249.46
226.29
211.86
212.51
229.86
261.26
301.58
345.22
387.54
425.30
456.36
479.04
491.82
493.42
483.11
460.98
427.74
384.16
330.62
266.83
192.30
107.12
12.70
-88.06
-191.30
-293.19
-390.91
-482.90
-568.36
-646.26
-714.29
-768.59
-804.56
-818.26
-807.96
-775.10
-723.86
-659.83
-588.16
-512.70
-436.18
-361.62
-293.26
-236.50
-196.39
-175.49
-172.37
-182.03
-198.02
-215.03
-230.43
-243.97
-255.98
-265.39
-269.04
-262.65
-242.88
-209.17
-164.16
-112.58
-59.26
-7.48
41.79
89.39
136.89
185.64
236.34
288.88
342.10
393.41
438.63
472.73
491.37
492.56
477.80
451.76
420.46
389.02
360.10
333.72
308.24
281.75
252.99
221.58
187.84
152.52
116.63
81.23
47.11
14.47
-17.06
-47.70
-76.91
-103.08
-124.11
-138.24
-144.75
-143.72
-135.21
-118.39
-91.80
-54.49
-7.44
45.80
99.86
149.26
190.33
222.09
245.89
264.18
279.24
292.28
303.27
311.35
315.15
313.28
304.68
289.15
267.56
241.91
214.79
188.58
164.77
143.55
124.03
104.64
83.71
59.95
32.69
2.24
-29.83
-60.58
-86.01
-102.09
-105.97
-97.04
-77.31
-50.71
-21.85
5.30
28.11
45.50
57.59
65.12
69.16
70.83
71.10
70.65
69.71
68.09
65.34
61.03
54.95
47.08
37.44
25.75
11.34
-6.81
-29.83
-58.33
-92.07
-129.73
-169.06
-207.34
-241.76
-269.77
-289.16
-298.33
-296.74
-285.47
-267.53
-247.29
-229.20
-216.04
-207.64
-201.05
-191.82
-176.01
-151.66
-118.97
-79.58
-35.50
11.36
58.88
104.10
143.07
171.60
186.63
187.43
175.95
155.88
131.10
104.29
76.37
46.89
15.03
-19.37
-55.50
-91.74
-126.23
-157.58
-185.10
-208.78
-229.03
-246.37
-261.23
-273.88
-284.36
-292.30
-296.76
-296.09
-288.03
-270.13
-240.46
-198.48
-145.53
-85.01
-21.88
38.35
90.79
132.03
160.53
176.38
180.73
175.32
162.05
142.96
120.14
95.73
71.72
49.81
31.31
17.13
7.73
3.15
2.86
5.82
10.88
17.38
25.61
36.84
52.73
74.48
102.09
134.16
168.22
201.15
229.58
250.08
259.47
255.27
236.49
203.96
160.23
108.69
52.78
-4.49
-60.23
-111.04
-152.93
-182.01
-195.94
-195.15
-183.10
-165.17
-146.67
-131.11
-119.50
-110.84
-103.45
-96.29
-89.61
-84.69
-83.15
-86.12
-93.74
-105.23
-119.13
-133.88
-148.43
-162.62
-177.26
-193.91
-214.26
-239.20
-268.30
-299.35
-328.70
-352.01
-365.19
-365.02
-349.67
-319.22
-276.55
-227.89
-182.24
-148.99
-134.39
-138.61
-155.26
-173.87
-184.28
-180.56
-162.52
-134.29
-101.33
-67.97
-36.47
-7.98
16.38
35.38
48.48
57.09
65.00
77.48
99.31
133.03
177.79
229.45
281.90
329.02
366.81
394.54
414.48
430.39
445.44
460.70
474.93
485.77
491.33
491.25
486.66
479.22
469.97
458.90
445.16
427.85
406.54
381.36
352.66
320.53
284.73
245.11
202.21
157.61
113.74
73.22
37.97
8.65
-15.39
-35.68
-53.84
-71.01
-87.48
-102.74
-115.73
-125.30
-130.52
-131.00
-126.87
-118.76
-107.60
-94.53
-80.86
-67.93
-56.93
-48.61
-43.01
-39.33
-36.19
-32.22
-26.58
-19.52
-12.21
-6.22
-2.72
-1.75
-2.11
-1.82
0.96
7.12
16.25
26.87
37.17
45.81
52.32
57.00
60.43
62.93
64.31
64.00
61.58
57.11
51.23
44.82
38.44
32.01
24.72
15.50
3.63
-10.67
-26.21
-41.28
-54.38
-64.92
-73.41
-81.15
-89.50
-99.22
-110.12
-121.27
-131.46
-139.69
-145.52
-148.98
-150.41
-150.21
-148.80
-146.64
-144.33
-142.52
-141.68
-141.80
-142.12
-141.41
-138.21
-131.53
-121.29
-108.43
-94.68
-81.79
-70.97
-62.44
-55.55
-49.22
-42.58
-35.29
-27.47
-19.45
-11.31
-2.81
6.51
16.96
28.36
40.00
50.82
59.86
66.60
71.07
73.73
75.17
75.93
76.38
76.86
77.69
79.13
81.21
83.59
85.58
86.40
85.53
83.04
79.50
75.76
72.40
69.42
66.20
61.78
55.31
46.42
35.32
22.68
9.40
-3.68
-15.98
-27.23
-37.54
-47.24
-56.65
-65.71
-73.66
-79.11
-80.41
-76.44
-67.28
-54.47
-40.68
-28.79
-20.93
-17.90
-19.25
-23.87
-30.66
-39.00
-48.70
-59.59
-71.07
-81.96
-90.72
-95.92
-96.71
-92.95
-85.08
-73.76
-59.68
-43.54
-26.26
-9.09
6.52
19.25
28.33
33.77
36.15
36.38
35.17
32.95
29.92
26.27
22.38
18.75
15.82
13.73
12.28
11.01
9.50
7.53
5.22
2.87
0.78
-0.90
-2.32
-3.80
-5.70
-8.23
-11.31
-14.55
-17.34
-19.09
-19.38
-18.16
-15.75
-12.77
-9.87
-7.52
-5.87
-4.69
-3.52
-1.85
0.61
3.88
7.56
10.99
13.39
14.15
12.99
10.11
6.16
2.00
-1.54
-3.88
-4.73
-4.16
-2.48
-0.29
1.59
2.16
0.53
-3.74
-10.29
-17.93
-24.87
-29.31
-30.08
-27.05
-21.13
-13.85
-6.83
-1.27
2.28
3.86
3.87
2.80
1.04
-1.12
-3.50
-5.87
-8.00
-9.60
-10.48
-10.56
-10.00
-9.17
-8.54
-8.65
-9.97
-12.77
-17.04
-22.46
-28.42
-34.19
-39.10
-42.62
-44.38
-44.10
-41.50
-36.37
-28.69
-18.77
-7.33
4.62
16.05
26.09
34.22
40.31
44.52
47.17
48.75
49.81
50.90
52.43
54.54
57.05
59.42
60.95
60.97
59.06
55.16
49.58
42.89
35.72
28.62
21.90
15.75
10.15
5.06
0.31
-4.18
-8.43
-12.27
-15.27
-16.95
-16.83
-14.80
-11.14
-6.58
-2.01
1.79
4.38
5.71
5.98
5.51
4.58
3.35
1.94
0.50
-0.79
-1.69
-2.08
-1.88
-1.22
-0.32
0.51
0.99
0.93
0.31
-0.71
-1.86
-2.88
-3.66
-4.28
-5.07
-6.36
-8.33
-10.82
-13.26
-14.86
-14.92
-13.10
-9.56
-4.90
0.00
4.26
7.21
8.47
7.94
5.83
2.58
-1.27
-5.05
-8.18
-10.28
-11.24
-11.32
-10.96
-10.69
-10.92
-11.77
-13.09
-14.59
-15.94
-16.98
-17.72
-18.34
-19.09
-20.13
-21.56
-23.28
-24.97
-26.15
-26.26
-24.82
-21.59
-16.67
-10.51
-3.79
2.76
8.54
13.10
16.26
17.94
18.19
17.09
14.77
11.52
7.73
3.92
0.64
-1.66
-2.81
-2.94
-2.45
-1.88
-1.62
-1.77
-2.18
-2.59
-2.85
-3.11
-3.74
-5.22
-7.83
-11.50
-15.74
-19.72
-22.52
-23.38
-21.89
-18.08
-12.41
-5.62
1.43
8.01
13.57
17.91
21.03
23.14
24.51
25.43
26.13
26.79
27.55
28.41
29.29
29.99
30.30
30.01
29.01
27.31
25.03
22.41
19.70
17.11
14.75
12.62
10.62
8.60
6.43
4.07
1.65
-0.51
-1.97
-2.26
-1.09
1.56
5.39
9.86
14.36
18.32
21.35
23.29
24.16
24.10
23.34
22.19
20.97
20.01
19.50
19.46
19.71
19.94
19.80
18.97
17.32
14.88
11.83
8.47
5.08
1.89
-1.04
-3.75
-6.39
-9.17
-12.28
-15.76
-19.43
-22.85
-25.42
-26.61
-26.11
-24.05
-20.98
-17.67
-14.89
-13.09
-12.36
-12.42
-12.88
-13.41
-13.80
-14.04
-14.16
-14.22
-14.23
-14.16
-13.97
-13.65
-13.17
-12.54
-11.76
-10.80
-9.70
-8.53
-7.47
-6.74
-6.52
-6.88
-7.65
-8.42
-8.65
-7.88
-5.88
-2.77
1.04
4.98
8.51
11.24
13.04
13.93
14.03
13.48
12.45
11.08
9.50
7.86
6.25
4.77
3.43
2.20
0.96
-0.43
-2.04
-3.87
-5.79
-7.58
-9.15
-10.48
-11.76
-13.23
-15.03
-17.00
-18.71
-19.57
-19.06
-16.99
-13.62
-9.55
-5.50
-2.05
0.47
2.00
2.57
2.34
1.41
0.01
-1.57
-2.94
-3.76
-3.83
-3.16
-2.05
-0.85
0.07
0.51
0.41
-0.18
-1.10
-2.23
-3.44
-4.52
-5.18
-5.00
-3.53
-0.44
4.38
10.74
18.31
26.65
35.35
44.05
52.31
59.51
64.90
67.83
67.97
65.53
61.19
55.77
49.87
43.59
36.63
28.56
19.18
8.79
-1.89
-12.00
-20.85
-28.11
-33.83
-38.22
-41.47
-43.70
-44.98
-45.41
-45.25
-44.83
-44.42
-44.06
-43.42
-41.89
-38.84
-33.90
-27.21
-19.42
-11.50
-4.37
1.36
5.50
8.25
9.96
10.99
11.62
12.10
12.59
13.20
13.88
14.38
14.33
13.46
11.67
9.18
6.38
3.66
1.29
-0.72
-2.47
-4.16
-5.94
-7.96
-10.34
-13.10
-16.09
-18.87
-20.82
-21.31
-20.05
-17.16
-13.25
-9.14
-5.61
-3.16
-1.94
-1.81
-2.52
-3.72
-5.09
-6.35
-7.25
-7.68
-7.74
-7.65
-7.65
-7.93
-8.45
-9.09
-9.65
-10.01
-10.23
-10.48
-10.96
-11.85
-13.24
-15.05
-17.08
-18.91
-19.99
-19.73
-17.66
-13.68
-8.16
-1.87
4.16
9.06
12.29
13.80
13.96
13.31
12.41
11.64
11.19
11.11
11.31
11.69
12.07
12.26
12.09
11.45
10.34
8.86
7.13
5.22
3.18
0.96
-1.49
-4.21
-7.12
-9.96
-12.27
-13.48
-13.09
-10.87
-7.04
-2.24
2.65
6.82
9.77
11.41
12.00
11.84
11.22
10.27
9.07
7.74
6.47
5.46
4.80
4.40
3.94
3.05
1.45
-0.86
-3.62
-6.40
-8.74
-10.41
-11.45
-12.21
-13.12
-14.59
-16.76
-19.50
-22.41
-24.93
-26.48
-26.56
-24.84
-21.28
-16.13
-9.95
-3.49
2.47
7.36
10.88
13.07
14.17
14.52
14.44
14.16
13.87
13.71
13.81
14.21
14.81
15.38
15.61
15.20
14.03
12.17
9.92
7.60
5.44
3.46
1.43
-0.90
-3.69
-6.76
-9.67
-11.79
-12.52
-11.54
-8.82
-4.70
0.28
5.51
10.43
14.61
17.71
19.56
20.08
19.42
17.91
16.02
14.25
13.00
12.46
12.56
13.03
13.55
13.80
13.52
12.62
11.12
9.17
7.02
4.90
2.95
1.17
-0.58
-2.56
-4.96
-7.83
-10.99
-13.99
-16.27
-17.22
-16.42
-13.81
-9.70
-4.68
0.52
5.27
9.15
11.96
13.66
14.34
14.18
13.40
12.31
11.26
10.54
10.32
10.59
11.22
11.98
12.59
12.80
12.49
11.67
10.45
9.05
7.63
6.28
4.98
3.60
2.02
0.17
-1.90
-4.09
-6.10
-7.57
-8.09
-7.28
-5.03
-1.50
2.76
7.04
10.61
13.01
14.06
13.89
12.76
11.02
9.04
7.18
5.77
5.03
4.97
5.33
5.66
5.53
4.66
3.07
0.99
-1.25
-3.39
-5.36
-7.24
-9.17
-11.31
-13.77
-16.55
-19.53
-22.39
-24.65
-25.73
-25.14
-22.73
-18.75
-13.81
-8.75
-4.34
-1.12
0.67
1.12
0.51
-0.76
-2.26
-3.60
-4.45
-4.66
-4.26
-3.43
-2.47
-1.68
-1.28
-1.41
-2.02
-3.00
-4.20
-5.50
-6.86
-8.34
-10.06
-12.13
-14.47
-16.82
-18.65
-19.37
-18.53
-15.98
-12.02
-7.27
-2.49
1.73
5.02
7.31
8.71
9.34
9.29
8.67
7.60
6.32
5.07
4.04
3.30
2.79
2.34
1.71
0.62
-1.11
-3.60
-6.82
-10.56
-14.52
-18.39
-21.96
-25.04
-27.47
-28.95
-29.12
-27.59
-24.19
-19.15
-13.09
-6.89
-1.40
2.79
5.47
6.77
7.04
6.61
5.79
4.79
3.81
3.08
2.82
3.21
4.30
5.91
7.67
9.12
9.81
9.50
8.16
5.92
2.97
-0.56
-4.53
-8.67
-12.50
-15.33
-16.43
-15.41
-12.32
-7.79
-2.72
2.03
5.94
8.89
10.98
12.31
12.85
12.56
11.50
9.97
8.52
7.66
7.68
8.43
9.47
10.20
10.20
9.32
7.65
5.47
3.07
0.65
-1.66
-3.82
-5.83
-7.57
-8.81
-9.23
-8.44
-6.15
-2.30
2.79
8.52
14.04
18.55
21.42
22.38
21.53
19.30
16.32
13.24
10.60
8.70
7.56
6.97
6.58
6.07
5.15
3.70
1.67
-0.89
-3.86
-7.07
-10.26
-13.25
-15.95
-18.38
-20.63
-22.64
-24.10
-24.42
-22.98
-19.37
-13.78
-6.95
-0.06
5.75
9.75
11.79
12.31
12.01
11.59
11.46
11.79
12.54
13.60
14.84
16.12
17.24
17.92
17.87
16.91
15.11
12.78
10.43
8.57
7.54
7.36
7.75
8.28
8.52
8.31
7.73
7.16
7.05
7.72
9.25
11.39
13.66
15.55
16.67
16.81
15.94
14.17
11.73
8.91
6.06
3.53
1.59
0.31
-0.38
-0.71
-0.97
-1.37
-2.05
-2.99
-4.13
-5.36
-6.65
-8.04
-9.61
-11.46
-13.54
-15.69
-17.60
-18.91
-19.28
-18.60
-16.95
-14.65
-12.15
-9.97
-8.49
-7.93
-8.32
-9.52
-11.27
-13.21
-14.96
-16.09
-16.21
-15.12
-12.89
-9.97
-7.11
-5.18
-4.85
-6.45
-9.85
-14.59
-20.11
-25.87
-31.41
-36.29
-40.01
-42.01
-41.81
-39.21
-34.46
-28.25
-21.56
-15.34
-10.29
-6.65
-4.37
-3.13
-2.57
-2.35
-2.17
-1.84
-1.22
-0.24
1.12
2.73
4.43
5.97
7.13
7.72
7.62
6.83
5.43
3.56
1.32
-1.17
-3.76
-6.24
-8.19
-9.17
-8.79
-7.00
-4.15
-0.93
1.88
3.70
4.33
3.95
2.86
1.36
-0.47
-2.70
-5.41
-8.54
-11.87
-15.04
-17.67
-19.51
-20.30
-19.86
-17.90
-14.20
-8.67
-1.52
6.68
15.13
23.04
29.97
35.97
41.53
47.41
54.27
62.35
71.37
80.65
89.16
95.90
99.96
100.76
98.06
92.04
83.35
72.90
61.67
50.42
39.49
28.75
17.78
6.19
-6.13
-18.84
-31.32
-42.86
-52.93
-61.24
-67.82
-72.83
-76.53
-79.17
-80.95
-81.94
-81.98
-80.70
-77.65
-72.48
-65.20
-56.28
-46.62
-37.21
-28.87
-21.96
-16.45
-11.99
-8.25
-5.04
-2.27
0.14
2.43
5.03
8.37
12.68
17.74
22.92
27.41
30.57
32.20
32.62
32.44
32.23
32.14
31.90
30.93
28.73
25.15
20.56
15.68
11.29
7.94
5.86
5.02
5.27
6.51
8.68
11.63
15.11
18.68
21.77
23.90
24.76
24.29
22.73
20.47
17.97
15.63
13.64
11.99
10.43
8.65
6.45
3.81
0.92
-1.93
-4.52
-6.72
-8.60
-10.27
-11.85
-13.40
-14.96
-16.58
-18.36
-20.36
-22.53
-24.60
-26.14
-26.72
-25.97
-23.86
-20.61
-16.63
-12.43
-8.38
-4.69
-1.45
1.39
3.91
6.23
8.57
11.16
14.27
18.11
22.70
27.91
33.48
39.16
44.73
50.11
55.27
60.19
64.80
69.05
72.85
76.10
78.62
80.13
80.32
78.93
75.90
71.35
65.53
58.61
50.61
41.39
30.88
19.39
7.69
-3.12
-11.94
-18.16
-21.84
-23.63
-24.42
-24.98
-25.71
-26.70
-27.88
-29.22
-30.76
-32.56
-34.60
-36.72
-38.74
-40.49
-41.93
-43.07
-43.97
-44.67
-45.18
-45.52
-45.80
-46.12
-46.63
-47.50
-48.93
-51.12
-54.20
-58.08
-62.43
-66.72
-70.46
-73.30
-75.17
-76.24
-76.76
-76.91
-76.66
-75.79
-74.03
-71.16
-67.10
-61.99
-56.16
-50.06
-44.17
-38.88
-34.34
-30.47
-26.95
-23.43
-19.54
-15.04
-9.77
-3.62
3.51
11.54
20.21
28.98
37.04
43.56
47.81
49.37
48.26
44.96
40.24
35.02
30.17
26.29
23.63
22.09
21.27
20.74
20.09
19.11
17.69
15.95
14.17
12.80
12.42
13.52
16.32
20.61
25.73
30.76
34.88
37.56
38.68
38.42
37.08
34.91
32.02
28.50
24.48
20.23
16.04
12.20
8.82
5.88
3.25
0.78
-1.65
-4.06
-6.51
-9.02
-11.57
-14.14
-16.63
-18.97
-21.14
-23.18
-25.10
-26.71
-27.52
-26.76
-23.61
-17.56
-8.80
1.73
12.44
21.54
27.44
29.14
26.42
19.80
10.49
0.04
-9.95
-18.36
-24.97
-30.59
-36.63
-44.38
-54.11
-64.72
-74.15
-80.39
-82.46
-80.85
-77.08
-72.71
-68.54
-64.57
-60.54
-56.88
-55.02
-57.02
-64.48
-77.56
-94.70
-113.12
-129.75
-142.07
-148.47
-148.05
-140.39
-125.59
-104.58
-79.59
-53.84
-30.60
-11.88
2.47
14.73
28.00
44.66
65.10
87.53
108.86
126.07
137.38
142.60
142.80
139.43
133.63
126.03
116.93
106.72
96.18
86.38
78.35
72.61
68.88
66.19
63.46
60.03
56.07
52.49
50.35
50.35
52.67
57.14
63.74
72.65
83.98
97.17
110.56
121.69
128.09
128.55
123.69
115.88
108.17
103.00
101.21
101.79
102.35
100.06
92.64
79.32
61.37
42.04
25.70
16.26
15.69
23.07
34.98
47.04
55.67
59.25
58.06
53.13
45.03
33.23
16.54
-5.97
-34.12
-66.46
-100.87
-135.24
-168.11
-198.57
-226.07
-250.02
-269.72
-284.52
-294.11
-298.63
-298.71
-295.15
-288.61
-279.39
-267.37
-252.15
-233.32
-210.80
-185.07
-157.20
-128.63
-100.84
-74.89
-51.22
-29.65
-9.61
9.56
28.38
47.13
65.92
84.62
102.79
119.51
133.59
143.83
149.52
150.88
149.04
145.72
142.58
140.71
140.47
141.59
143.58
146.05
148.77
151.63
154.43
156.92
158.83
160.17
161.27
162.83
165.70
170.55
177.67
186.86
197.45
208.63
219.70
230.35
240.81
251.61
263.26
275.77
288.35
299.43
306.96
309.00
304.17
291.93
272.58
246.98
216.43
182.37
146.07
108.37
69.43
28.86
-13.79
-58.32
-103.39
-146.50
-184.54
-214.72
-235.25
-245.71
-246.90
-240.41
-228.37
-213.17
-197.31
-183.13
-172.33
-165.67
-162.73
-162.24
-162.54
-162.07
-159.87
-155.77
-150.31
-144.67
-140.14
-137.81
-138.13
-140.85
-145.18
-150.19
-155.21
-160.06
-164.98
-170.29
-176.00
-181.56
-185.89
-187.65
-185.69
-179.38
-168.87
-154.99
-139.12
-122.80
-107.41
-94.00
-83.15
-74.97
-69.14
-65.11
-62.10
-59.41
-56.46
-52.96
-48.91
-44.46
-39.83
-35.28
-31.03
-27.30
-24.32
-22.26
-21.27
-21.39
-22.60
-24.75
-27.53
-30.42
-32.69
-33.55
-32.23
-28.31
-21.81
-13.33
-3.85
5.38
13.27
19.06
22.48
23.77
23.54
22.57
21.59
21.14
21.47
22.55
24.11
25.73
27.03
27.68
27.58
26.81
25.56
23.96
21.97
19.31
15.56
10.42
3.99
-3.07
-9.55
-14.09
-15.61
-13.75
-9.03
-2.63
4.10
10.00
14.44
17.26
18.60
18.68
17.67
15.80
13.44
11.07
9.22
8.22
8.07
8.41
8.69
8.41
7.30
5.38
2.84
-0.10
-3.37
-7.06
-11.27
-15.85
-20.25
-23.51
-24.57
-22.69
-17.74
-10.42
-1.97
6.25
13.19
18.35
21.74
23.61
24.19
23.58
21.85
19.11
15.73
12.24
9.19
6.98
5.65
4.91
4.23
3.06
1.08
-1.82
-5.51
-9.74
-14.27
-18.77
-22.83
-25.82
-26.96
-25.56
-21.29
-14.45
-5.97
2.86
10.79
16.99
21.20
23.66
24.83
25.16
24.97
24.34
23.32
21.97
20.45
19.00
17.83
17.01
16.42
15.78
14.80
13.31
11.30
8.85
6.06
2.95
-0.48
-4.09
-7.44
-9.69
-9.91
-7.45
-2.29
4.80
12.55
19.61
25.07
28.58
30.37
30.91
30.65
29.90
28.89
27.84
27.03
26.67
26.82
27.26
27.53
27.17
25.85
23.55
20.56
17.36
14.41
11.96
9.99
8.21
6.21
3.62
0.28
-3.57
-7.29
-9.97
-10.61
-8.50
-3.53
3.72
12.13
20.34
27.27
32.36
35.64
37.46
38.25
38.27
37.67
36.54
35.14
33.86
33.11
33.05
33.53
34.11
34.24
33.49
31.77
29.25
26.34
23.44
20.83
18.57
16.52
14.42
12.02
9.08
5.51
1.35
-3.20
-7.68
-11.43
-13.67
-13.76
-11.40
-6.82
-0.80
5.67
11.61
16.40
19.82
21.98
23.10
23.30
22.64
21.19
19.23
17.22
15.70
15.04
15.22
15.83
16.24
15.89
14.56
12.47
10.12
8.10
6.75
6.12
5.94
5.77
5.22
3.96
1.85
-0.98
-4.12
-6.82
-8.26
-7.67
-4.80
0.05
6.05
12.13
17.39
21.26
23.60
24.53
24.28
23.17
21.49
19.63
17.97
16.79
16.24
16.20
16.47
16.75
16.85
16.70
16.31
15.79
15.29
14.90
14.66
14.47
14.13
13.44
12.34
11.09
10.22
10.35
11.97
15.23
19.83
25.12
30.34
34.74
37.74
39.04
38.58
36.60
33.56
30.04
26.62
23.70
21.43
19.66
18.14
16.62
14.96
13.22
11.48
9.83
8.28
6.75
5.14
3.34
1.21
-1.34
-4.29
-7.39
-10.10
-11.66
-11.33
-8.72
-4.01
2.07
8.46
14.11
18.31
20.72
21.40
20.62
18.76
16.24
13.50
10.95
8.93
7.56
6.76
6.33
5.98
5.47
4.63
3.36
1.61
-0.60
-3.18
-6.00
-8.93
-11.87
-14.75
-17.39
-19.46
-20.44
-19.73
-16.88
-11.87
-5.23
2.04
8.78
13.97
17.06
17.98
17.07
14.89
12.00
8.94
6.14
3.99
2.70
2.31
2.67
3.49
4.40
5.14
5.53
5.46
4.88
3.74
1.98
-0.43
-3.53
-7.25
-11.38
-15.45
-18.77
-20.55
-20.14
-17.29
-12.30
-5.95
0.70
6.68
11.32
14.31
15.61
15.39
13.88
11.43
8.48
5.49
2.88
0.88
-0.47
-1.31
-1.87
-2.39
-3.03
-3.93
-5.18
-6.80
-8.78
-11.01
-13.42
-15.95
-18.62
-21.37
-23.93
-25.75
-26.05
-24.14
-19.67
-12.93
-4.85
3.30
10.21
15.02
17.42
17.67
16.39
14.25
11.84
9.56
7.61
6.09
4.91
3.95
3.03
1.96
0.69
-0.77
-2.26
-3.65
-4.83
-5.84
-6.86
-8.16
-10.01
-12.62
-15.94
-19.58
-22.83
-24.81
-24.71
-22.15
-17.36
-11.13
-4.56
1.26
5.59
8.14
9.03
8.54
7.01
4.76
2.09
-0.59
-2.89
-4.45
-5.04
-4.70
-3.63
-2.21
-0.82
0.16
0.42
-0.24
-1.90
-4.51
-7.85
-11.62
-15.41
-18.74
-21.05
-21.72
-20.21
-16.30
-10.32
-3.16
3.87
9.48
12.80
13.67
12.55
10.33
7.94
6.10
5.21
5.40
6.60
8.58
10.96
13.14
14.48
14.37
12.50
9.02
4.54
-0.03
-3.86
-6.43
-7.78
-8.44
-9.22
-10.86
-13.69
-17.52
-21.59
-24.84
-26.17
-24.82
-20.60
-13.99
-5.96
2.30
9.66
15.35
18.98
20.55
20.27
18.51
15.74
12.52
9.44
7.01
5.52
4.98
5.09
5.37
5.32
4.66
3.39
1.84
0.59
0.25
1.25
3.63
6.96
10.43
13.10
14.29
13.78
11.91
9.37
6.88
4.94
3.68
2.95
2.35
1.40
-0.40
-3.46
-7.97
-13.67
-19.67
-24.56
-26.69
-24.69
-18.00
-7.21
6.15
20.01
32.48
42.59
50.50
57.44
65.02
74.58
86.50
100.35
114.72
127.61
137.04
141.47
140.27
133.90
123.75
111.68
99.96
90.16
82.67
76.89
71.63
65.71
58.51
50.10
41.03
32.86
26.91
23.84
23.77
26.27
30.47
35.34
39.86
43.10
45.73
49.05
54.58
64.09
78.63
98.02
120.95
145.72
163.49
167.98
155.98
128.06
89.01
45.38
2.98
-34.46
-65.19
-89.30
-106.89
-116.24
-119.19
-117.46
-112.34
-104.95
-96.61
-88.46
-81.77
-76.36
-71.20
-65.26
-57.69
-47.77
-35.50
-21.64
-6.78
7.87
21.36
32.52
39.40
40.18
34.18
22.09
5.85
-11.23
-26.67
-39.17
-46.34
-48.17
-47.30
-47.31
-51.20
-65.12
-89.36
-122.02
-160.61
-203.19
-244.06
-278.90
-303.65
-315.12
-312.26
-296.30
-271.98
-245.72
-223.15
-207.25
-197.99
-192.55
-187.35
-180.19
-170.50
-159.78
-150.07
-142.58
-137.32
-133.57
-129.84
-124.60
-116.91
-106.37
-93.84
-80.95
-69.45
-60.55
-54.60
-50.45
-45.98
-38.70
-26.52
-8.63
14.42
40.92
68.15
92.57
110.79
120.64
122.41
119.33
116.52
118.90
128.71
144.27
160.41
170.91
171.27
160.78
142.61
122.19
104.81
93.38
87.80
85.44
82.73
76.74
66.17
51.52
34.54
17.41
1.96
-10.51
-19.01
-22.63
-20.63
-12.76
0.31
16.96
34.93
52.10
66.96
78.73
87.09
91.93
93.14
90.87
85.73
78.91
71.95
66.28
62.82
61.71
62.41
63.90
64.93
64.19
60.53
53.22
42.42
29.37
16.30
5.70
-0.62
-2.38
-1.04
0.77
0.29
-4.32
-13.38
-25.66
-38.90
-50.34
-57.43
-58.41
-52.73
-41.23
-25.75
-8.36
9.47
27.24
45.28
64.10
83.65
103.20
121.47
137.17
149.30
157.18
160.22
157.87
149.72
135.84
117.08
94.85
70.50
44.62
16.65
-14.68
-50.44
-90.42
-132.43
-172.55
-206.34
-230.52
-244.44
-250.63
-254.04
-260.14
-272.52
-291.11
-311.85
-328.25
-333.97
-325.44
-303.18
-271.21
-235.07
-199.50
-166.88
-137.28
-109.59
-83.01
-57.74
-34.84
-15.42
0.13
12.33
22.18
30.35
36.69
40.23
39.54
33.46
21.71
5.07
-14.89
-36.52
-58.76
-81.55
-105.42
-130.66
-156.45
-180.55
-199.77
-211.30
-214.15
-209.84
-201.96
-194.55
-190.10
-188.07
-184.72
-174.25
-150.88
-110.87
-53.88
16.76
94.87
172.91
243.90
302.91
347.98
380.09
402.19
417.74
429.60
439.09
445.80
447.83
442.17
425.45
395.47
352.83
301.89
250.06
205.24
172.61
152.44
140.31
129.59
114.88
94.08
68.28
39.65
9.18
-24.13
-62.18
-105.64
-152.60
-198.71
-239.04
-270.22
-291.54
-304.57
-311.39
-312.46
-305.64
-286.56
-251.10
-198.23
-131.68
-59.31
9.40
66.78
109.27
137.84
156.50
169.99
182.05
194.83
209.15
225.14
242.39
259.87
275.67
287.11
291.31
286.16
271.21
247.95
219.51
189.74
161.88
137.40
115.72
94.76
72.16
46.61
18.30
-11.32
-40.43
-67.52
-91.78
-112.96
-131.04
-146.08
-158.22
-167.70
-174.76
-179.44
-181.54
-180.70
-176.76
-169.98
-161.12
-151.15
-140.93
-130.95
-121.36
-112.15
-103.41
-95.33
-88.09
-81.68
-75.87
-70.31
-64.84
-59.64
-55.19
-51.99
-50.30
-50.00
-50.73
-52.21
-54.50
-57.98
-63.14
-70.30
-79.34
-89.67
-100.34
-110.08
-117.44
-120.95
-119.31
-111.81
-98.65
-81.01
-60.79
-40.01
-20.20
-2.02
14.70
30.65
46.50
62.55
78.64
94.23
108.64
121.19
131.36
138.76
143.14
144.34
142.30
137.08
128.86
117.99
105.00
90.60
75.55
60.57
46.19
32.77
20.67
10.35
2.41
-2.55
-4.23
-2.89
0.69
5.35
10.08
14.39
18.44
22.81
28.12
34.55
41.76
49.14
56.09
62.43
68.44
74.71
81.73
89.64
98.06
106.17
112.96
117.46
118.88
116.73
110.69
100.66
86.60
68.63
47.13
22.87
-2.81
-28.19
-51.46
-71.31
-87.33
-100.23
-111.47
-122.64
-134.84
-148.31
-162.53
-176.72
-190.30
-203.12
-215.57
-228.16
-241.25
-254.83
-268.43
-281.27
-292.47
-301.30
-307.22
-310.02
-309.62
-305.76
-297.89
-285.10
-266.14
-239.73
-204.85
-160.95
-108.18
-47.46
19.53
90.40
162.35
232.66
299.04
359.89
414.24
461.38
500.54
530.66
550.44
558.86
555.52
541.00
516.77
484.87
447.21
405.19
359.32
309.36
254.77
195.23
131.20
64.11
-3.82
-70.15
-132.62
-189.64
-240.37
-284.76
-323.43
-357.39
-387.64
-414.51
-437.22
-453.56
-460.44
-454.72
-434.57
-400.52
-355.45
-303.77
-249.81
-196.60
-145.29
-95.77
-47.38
-0.22
44.46
84.74
118.89
145.99
165.80
178.59
184.71
185.32
182.03
176.96
172.52
170.72
172.52
177.50
184.34
191.24
197.45
202.55
206.45
209.33
211.86
215.05
219.81
226.67
235.07
244.72
254.66
263.64
269.82
271.01
264.77
248.85
222.21
177.68
113.45
32.91
-56.12
-144.29
-223.10
-286.28
-333.03
-363.71
-379.83
-383.55
-379.01
-369.78
-360.24
-353.59
-350.72
-350.23
-348.67
-342.22
-326.95
-300.82
-264.31
-220.55
-173.97
-128.75
-87.64
-51.14
-18.30
12.78
43.28
73.12
100.94
125.00
144.00
157.40
165.55
169.02
168.59
164.97
158.88
151.03
142.27
133.23
124.16
114.88
104.87
93.79
81.79
69.71
58.77
50.23
44.84
42.57
42.67
44.04
45.69
47.01
47.84
48.41
49.17
50.54
52.76
55.81
59.29
62.48
64.39
63.91
60.32
53.68
45.21
37.20
32.30
32.69
39.19
50.87
65.39
79.79
91.29
97.97
99.06
94.87
86.69
76.60
67.13
60.75
59.12
62.61
70.33
80.57
91.49
101.71
110.41
117.19
121.92
124.64
125.61
125.17
123.22
118.63
109.43
93.65
70.84
43.34
15.86
-6.11
-18.78
-21.83
-18.38
-13.23
-10.53
-12.27
-18.41
-28.34
-42.19
-61.18
-86.66
-118.52
-154.28
-189.48
-219.03
-238.99
-247.62
-245.58
-235.13
-219.12
-199.95
-179.07
-157.10
-134.25
-111.01
-88.51
-68.30
-51.66
-38.98
-29.52
-21.86
-14.66
-7.21
0.52
8.29
15.94
23.62
31.50
39.44
46.89
53.10
57.68
60.92
63.64
66.68
70.16
73.00
72.84
66.53
51.15
25.29
-9.85
-50.35
-90.63
-125.49
-152.03
-170.60
-184.20
-196.61
-210.35
-225.46
-239.74
-250.08
-254.17
-251.71
-244.71
-237.19
-234.13
-239.96
-256.65
-282.29
-310.80
-333.42
-341.69
-330.39
-299.33
-252.78
-197.35
-139.31
-82.85
-29.95
18.64
62.40
100.74
133.58
161.91
187.75
213.36
240.07
267.68
294.61
318.65
337.90
351.33
358.99
361.69
360.49
356.23
348.93
337.56
320.08
293.94
256.91
207.93
147.54
77.78
1.71
-77.33
-155.98
-230.93
-298.75
-355.83
-398.77
-424.99
-433.14
-423.16
-396.02
-353.79
-299.90
-239.57
-179.64
-127.43
-88.76
-65.94
-56.95
-56.26
-57.20
-54.50
-45.86
-31.82
-14.60
3.39
20.46
35.66
48.49
58.51
65.50
69.75
72.23
74.33
77.57
83.04
91.00
100.88
111.55
121.68
130.10
136.16
139.78
141.43
141.78
141.32
140.12
137.88
134.19
128.86
122.10
114.58
107.10
100.20
93.93
87.76
80.95
73.00
64.09
55.22
47.84
43.11
41.33
41.68
42.53
42.15
39.46
34.55
28.54
23.07
19.67
19.11
21.23
25.04
29.15
32.17
33.19
32.04
29.37
26.51
25.20
27.09
33.36
44.37
59.60
77.81
97.38
116.78
134.90
151.12
165.27
177.34
187.39
195.47
201.51
205.27
206.24
203.76
197.16
186.15
171.12
153.01
132.78
110.87
86.84
59.74
28.88
-5.39
-41.35
-76.35
-107.82
-134.25
-155.54
-172.69
-186.88
-198.67
-207.59
-212.44
-212.10
-206.34
-196.17
-183.65
-171.28
-161.14
-154.45
-151.35
-151.18
-152.79
-154.96
-156.36
-155.69
-151.65
-143.24
-130.09
-112.83
-93.19
-73.75
-57.30
-45.99
-40.57
-40.04
-42.00
-43.37
-41.59
-35.43
-25.34
-13.08
-0.95
9.03
15.80
19.43
20.80
21.23
21.94
23.68
26.64
30.51
34.75
38.85
42.47
45.58
48.38
51.34
55.14
60.59
68.36
78.57
90.50
102.65
113.15
120.33
123.14
121.21
114.53
103.21
87.39
67.55
44.75
20.76
-2.33
-22.74
-39.44
-52.26
-61.54
-67.68
-70.98
-71.66
-70.10
-66.97
-63.16
-59.42
-56.27
-53.83
-52.04
-50.72
-49.75
-49.01
-48.33
-47.46
-46.17
-44.33
-41.96
-39.13
-35.89
-32.19
-27.94
-23.14
-18.03
-13.16
-9.22
-6.88
-6.53
-8.20
-11.54
-15.91
-20.57
-24.89
-28.35
-30.74
-32.11
-32.70
-32.82
-32.63
-32.00
-30.53
-27.84
-23.77
-18.75
-13.71
-9.84
-8.10
-8.72
-11.08
-13.90
-15.78
-15.80
-13.87
-10.71
-7.31
-4.39
-1.98
0.66
4.54
10.47
18.64
28.54
39.12
49.03
56.85
61.25
61.20
56.26
46.80
33.99
19.46
4.73
-9.23
-22.17
-34.15
-45.04
-54.11
-59.87
-60.42
-54.08
-39.98
-18.49
8.74
39.15
70.01
99.14
125.50
149.13
170.52
189.80
206.19
218.00
223.24
220.56
209.87
192.38
170.14
145.28
119.49
93.84
68.90
45.02
22.43
1.27
-18.51
-37.10
-54.69
-71.25
-86.42
-99.62
-110.22
-117.87
-122.59
-124.89
-125.54
-125.39
-125.04
-124.69
-123.98
-122.08
-117.94
-110.75
-100.35
-87.39
-73.30
-59.72
-48.05
-38.97
-32.42
-27.79
-24.27
-21.16
-17.98
-14.50
-10.64
-6.44
-2.01
2.43
6.59
10.13
12.74
14.25
14.69
14.45
14.15
14.50
16.01
18.66
21.82
24.42
25.36
24.03
20.61
16.13
12.12
10.05
10.73
14.06
19.05
24.32
28.65
31.41
32.65
32.90
32.71
32.34
31.76
30.80
29.43
27.92
26.57
25.49
24.44
22.92
20.58
17.57
14.63
12.78
12.77
14.67
17.86
21.33
24.30
26.51
28.36
30.52
33.46
37.15
41.14
44.89
48.21
51.60
55.95
62.24
70.95
81.78
93.74
105.38
115.16
121.50
122.68
116.82
102.28
78.35
46.14
8.73
-29.31
-63.29
-89.81
-107.62
-117.63
-122.01
-123.15
-122.89
-122.25
-121.61
-121.08
-120.56
-119.74
-117.94
-114.09
-106.77
-94.74
-77.61
-56.71
-35.42
-18.48
-10.46
-13.70
-27.10
-46.26
-65.25
-78.99
-85.07
-84.18
-78.90
-72.04
-65.17
-58.42
-51.16
-42.96
-34.14
-25.55
-18.00
-11.55
-5.63
0.66
7.88
15.67
22.69
27.29
28.41
26.28
22.65
20.17
21.52
28.47
41.48
59.82
82.08
106.70
132.42
158.50
184.53
210.29
235.41
258.96
279.24
293.78
299.80
295.00
278.36
250.75
214.88
174.56
133.66
95.05
59.99
28.18
-1.82
-31.97
-64.29
-100.42
-141.08
-185.29
-229.87
-269.69
-298.91
-313.03
-310.78
-294.88
-271.00
-245.46
-222.70
-203.96
-187.75
-171.56
-153.78
-134.53
-115.29
-97.66
-82.32
-68.90
-56.59
-44.96
-34.44
-26.08
-20.76
-18.45
-18.03
-17.67
-15.64
-10.98
-3.84
4.70
12.98
19.36
22.66
22.39
18.84
12.92
5.85
-1.28
-7.82
-13.79
-19.79
-26.71
-35.34
-45.98
-58.26
-71.06
-82.59
-90.89
-94.28
-91.78
-83.34
-69.74
-52.34
-32.73
-12.45
7.18
25.17
40.95
54.34
65.51
74.76
82.29
88.08
91.98
93.89
94.07
93.06
91.54
89.95
88.33
86.51
84.39
82.04
79.67
77.25
74.31
69.93
63.19
53.68
41.82
28.69
15.55
3.30
-7.79
-17.98
-27.66
-37.11
-46.19
-54.48
-61.37
-66.15
-68.14
-66.70
-61.44
-52.36
-39.86
-24.75
-8.12
8.71
24.36
37.56
47.48
54.03
57.93
60.58
63.44
67.52
72.92
78.94
84.55
88.92
91.80
93.36
93.81
93.04
90.49
85.50
77.73
67.60
56.37
45.80
37.75
33.56
33.82
38.31
46.03
55.46
64.78
72.27
76.52
76.80
73.10
65.98
56.24
44.65
31.76
18.04
4.00
-9.67
-22.20
-32.99
-41.79
-48.82
-54.53
-59.43
-63.91
-68.30
-73.08
-79.02
-87.12
-98.15
-112.02
-127.39
-141.79
-152.30
-156.68
-154.23
-146.11
-134.77
-122.99
-112.78
-104.90
-98.96
-93.96
-88.79
-82.65
-75.19
-66.54
-57.23
-48.11
-40.11
-33.94
-29.79
-27.36
-25.93
-24.76
-23.30
-21.20
-17.96
-12.63
-3.75
10.27
30.37
56.14
85.50
115.07
141.17
160.89
172.97
177.82
176.90
171.76
163.34
151.88
137.33
120.01
100.99
81.88
64.09
48.13
33.41
18.56
2.28
-15.78
-34.62
-52.14
-65.98
-74.40
-76.96
-74.55
-69.00
-62.36
-56.30
-51.84
-49.21
-48.02
-47.49
-46.74
-45.01
-41.93
-37.55
-32.22
-26.50
-20.86
-15.74
-11.54
-8.75
-8.02
-9.90
-14.62
-21.84
-30.68
-39.97
-48.67
-56.20
-62.48
-67.80
-72.52
-76.92
-81.08
-84.96
-88.54
-91.98
-95.68
-100.27
-106.46
-114.75
-125.09
-136.63
-147.75
-156.27
-160.08
-157.89
-149.66
-136.67
-121.12
-105.40
-91.26
-79.20
-68.14
-55.69
-38.95
-15.57
15.31
52.63
93.70
135.06
173.40
206.37
232.92
253.35
268.96
281.59
293.26
305.66
319.88
336.03
353.08
368.96
381.12
387.36
386.59
379.29
367.22
352.51
336.54
319.05
298.19
271.38
236.70
193.84
144.40
91.16
36.91
-16.29
-67.37
-115.86
-161.56
-204.12
-243.02
-277.76
-307.80
-332.56
-351.26
-362.95
-366.62
-361.75
-348.70
-328.95
-304.89
-279.21
-254.15
-231.03
-210.11
-190.81
-172.38
-154.31
-136.54
-119.38
-103.18
-88.05
-73.96
-60.88
-49.00
-38.70
-30.39
-24.14
-19.49
-15.40
-10.49
-3.46
6.46
19.19
33.71
48.35
61.16
70.55
75.66
76.56
74.09
69.44
63.70
57.57
51.43
45.46
39.90
35.05
31.15
28.14
25.59
22.81
19.15
14.33
8.58
2.66
-2.43
-5.74
-6.64
-4.97
-1.06
4.43
10.62
16.67
21.90
25.89
28.47
29.63
29.51
28.31
26.40
24.19
22.12
20.56
19.61
19.14
18.79
18.11
16.75
14.59
11.77
8.62
5.53
2.76
0.37
-1.86
-4.28
-7.34
-11.33
-16.21
-21.53
-26.44
-29.83
-30.65
-28.23
-22.61
-14.59
-5.48
3.29
10.68
16.22
20.07
22.69
24.55
25.99
27.17
28.22
29.36
30.78
32.53
34.40
35.90
36.48
35.83
34.00
31.44
28.73
26.36
24.48
22.93
21.31
19.21
16.38
12.72
8.34
3.50
-1.40
-5.75
-8.85
-10.04
-8.93
-5.68
-0.92
4.40
9.33
13.27
16.06
17.89
19.05
19.71
19.91
19.66
19.05
18.38
17.95
17.92
18.21
18.51
18.49
17.93
16.86
15.37
13.60
11.57
9.25
6.62
3.79
0.97
-1.62
-3.83
-5.74
-7.57
-9.63
-12.19
-15.45
-19.43
-23.93
-28.44
-32.20
-34.27
-33.83
-30.51
-24.61
-17.02
-8.96
-1.53
4.63
9.44
13.15
16.08
18.34
19.86
20.57
20.53
20.01
19.40
18.97
18.78
18.63
18.27
17.45
16.10
14.25
11.99
9.43
6.64
3.74
0.86
-1.85
-4.26
-6.39
-8.37
-10.47
-12.98
-16.12
-19.92
-24.12
-28.18
-31.36
-32.95
-32.36
-29.42
-24.35
-17.78
-10.57
-3.65
2.23
6.58
9.26
10.43
10.43
9.66
8.54
7.44
6.70
6.56
7.12
8.24
9.61
10.74
11.19
10.70
9.27
7.15
4.65
2.09
-0.37
-2.68
-4.91
-7.17
-9.57
-12.21
-15.09
-18.13
-21.00
-23.19
-24.05
-22.98
-19.60
-13.93
-6.42
2.04
10.36
17.50
22.70
25.62
26.36
25.37
23.29
20.82
18.57
16.94
16.13
16.08
16.53
17.06
17.28
16.88
15.72
13.90
11.67
9.37
7.28
5.52
4.07
2.71
1.22
-0.68
-3.16
-6.28
-9.95
-13.90
-17.62
-20.48
-21.81
-21.14
-18.35
-13.72
-7.88
-1.57
4.50
9.81
14.07
17.16
19.11
20.03
20.14
19.68
18.95
18.24
17.79
17.69
17.87
17.95
17.42
15.73
12.56
8.07
2.87
-2.14
-6.12
-8.66
-9.86
-10.26
-10.56
-11.34
-12.88
-15.23
-18.24
-21.73
-25.40
-28.77
-31.17
-31.89
-30.41
-26.63
-21.03
-14.46
-7.91
-2.22
2.19
5.24
7.11
8.07
8.37
8.24
7.91
7.64
7.61
7.89
8.40
8.94
9.32
9.39
9.12
8.52
7.61
6.43
4.96
3.26
1.40
-0.55
-2.56
-4.67
-6.99
-9.58
-12.33
-14.96
-16.99
-17.91
-17.35
-15.22
-11.78
-7.52
-3.05
1.16
4.77
7.65
9.75
11.02
11.42
10.95
9.76
8.20
6.74
5.81
5.64
6.15
6.98
7.64
7.70
7.00
5.69
4.09
2.58
1.30
0.17
-1.10
-2.77
-5.00
-7.73
-10.73
-13.64
-16.05
-17.53
-17.69
-16.28
-13.28
-8.97
-3.92
1.21
5.84
9.57
12.25
13.85
14.39
14.00
12.89
11.42
10.14
9.57
10.00
11.32
13.00
14.34
14.76
14.10
12.66
11.06
9.90
9.40
9.34
9.22
8.53
7.09
5.14
3.30
2.17
2.21
3.52
5.87
8.92
12.33
15.98
19.97
24.65
30.47
37.77
46.51
56.03
65.12
72.29
76.45
77.46
76.41
75.37
76.54
81.15
88.63
96.43
100.78
98.03
86.27
66.20
41.02
15.27
-7.02
-23.93
-36.33
-47.48
-61.62
-82.27
-110.62
-144.63
-179.05
-206.54
-219.75
-213.79
-188.24
-147.75
-100.82
-57.35
-25.68
-10.57
-12.42
-28.06
-52.41
-80.34
-107.79
-132.30
-152.79
-169.04
-181.25
-189.95
-196.01
-200.72
-205.62
-211.59
-217.71
-220.59
-214.95
-195.58
-159.68
-108.61
-48.05
13.46
67.29
107.32
131.71
142.98
146.50
148.15
152.09
159.56
169.09
178.00
184.11
186.88
187.52
187.95
189.55
192.76
197.17
202.37
208.63
216.56
226.36
237.23
247.32
254.37
256.73
254.05
247.25
237.95
227.49
216.32
203.87
188.92
170.16
146.59
117.83
84.27
47.17
8.69
-28.46
-61.69
-89.47
-111.82
-130.24
-147.03
-164.27
-183.07
-203.61
-225.31
-247.60
-270.17
-292.85
-315.09
-335.57
-352.14
-362.28
-363.69
-354.74
-334.61
-303.16
-261.09
-210.16
-153.67
-96.62
-45.03
-4.50
21.70
33.93
36.19
34.53
34.59
39.39
48.56
59.15
67.51
71.15
69.68
64.37
57.09
49.24
41.45
34.18
28.41
26.07
29.52
40.51
59.20
83.87
111.61
139.57
165.92
190.23
212.76
233.55
251.81
266.00
274.60
277.00
273.99
267.56
260.36
254.86
252.76
254.51
259.21
264.87
269.18
270.06
266.33
257.76
244.84
228.46
209.48
188.70
166.74
144.04
120.73
96.58
71.44
45.77
21.08
-0.32
-16.31
-26.20
-31.37
-34.90
-40.20
-49.56
-63.37
-80.39
-98.74
-116.99
-134.50
-151.12
-166.60
-180.13
-190.58
-197.13
-199.79
-199.58
-198.13
-197.00
-197.16
-198.78
-201.41
-204.32
-206.80
-208.28
-208.34
-206.71
-203.25
-197.99
-191.09
-182.68
-172.59
-160.38
-145.58
-128.20
-109.17
-90.32
-73.86
-61.45
-53.47
-48.88
-45.73
-41.97
-36.08
-27.39
-15.88
-1.91
13.99
31.01
48.07
63.85
77.29
87.85
95.55
100.59
102.61
100.45
92.45
77.30
55.09
27.64
-2.01
-30.70
-56.25
-77.98
-96.40
-112.56
-127.31
-140.94
-153.13
-163.14
-170.02
-172.86
-171.14
-165.13
-156.06
-145.91
-136.77
-130.15
-126.53
-125.43
-125.90
-127.21
-129.06
-131.50
-134.62
-138.17
-141.28
-142.32
-138.96
-128.71
-109.77
-81.82
-46.75
-8.36
28.58
59.88
83.04
97.66
105.01
107.19
106.36
104.49
103.25
104.06
107.94
115.15
124.97
135.85
145.75
152.80
155.56
153.25
145.66
132.97
115.63
94.39
70.40
45.08
20.00
-3.37
-23.89
-40.86
-53.84
-62.22
-65.02
-60.94
-49.00
-29.14
-2.61
28.32
61.07
93.65
125.00
154.78
182.74
208.05
229.24
244.63
253.07
254.42
249.57
239.92
226.76
210.92
192.69
172.08
149.12
123.91
96.69
67.68
37.10
5.39
-26.50
-56.90
-83.58
-104.28
-117.62
-123.65
-123.92
-121.00
-117.53
-115.31
-114.95
-116.01
-117.60
-119.15
-120.67
-122.67
-125.69
-129.80
-134.36
-138.19
-140.04
-139.03
-135.09
-128.94
-121.82
-115.00
-109.30
-104.88
-101.29
-97.84
-94.12
-90.29
-87.11
-85.63
-86.76
-90.81
-97.30
-105.15
-112.94
-119.37
-123.47
-124.87
-123.98
-122.04
-120.98
-123.01
-129.74
-141.24
-155.34
-167.64
-172.52
-164.98
-142.55
-106.40
-61.22
-13.69
29.57
63.63
86.04
96.41
95.52
84.59
64.98
38.50
7.74
-23.99
-53.28
-77.50
-95.50
-107.57
-114.86
-118.43
-118.42
-113.88
-103.18
-84.95
-59.08
-27.21
7.47
41.07
70.30
93.29
110.05
121.94
130.79
138.05
144.31
149.47
153.08
154.79
154.47
152.33
148.99
145.50
143.17
143.24
146.53
153.07
162.14
172.22
181.36
187.40
188.51
183.68
173.37
159.62
145.65
134.84
129.34
129.07
131.80
134.08
132.90
126.97
117.10
105.66
95.53
89.18
88.04
92.37
101.36
113.25
125.57
135.43
140.10
137.67
127.78
111.92
93.23
75.66
62.65
56.03
55.61
59.62
65.77
72.21
78.07
83.25
87.78
91.47
93.88
94.87
95.03
95.63
97.98
102.27
106.93
108.85
104.47
91.27
68.97
39.77
7.82
-21.80
-44.34
-56.54
-57.52
-49.15
-35.75
-23.03
-16.48
-19.58
-32.79
-53.61
-77.79
-100.89
-119.65
-132.34
-138.58
-138.71
-133.57
-124.55
-113.56
-102.93
-94.80
-90.66
-91.02
-95.59
-103.75
-114.90
-128.48
-143.82
-160.15
-176.80
-193.84
-212.46
-234.85
-263.42
-299.68
-343.20
-391.13
-438.21
-477.54
-501.86
-505.22
-484.59
-440.87
-378.83
-305.74
-229.36
-155.92
-89.15
-30.28
20.98
65.53
104.10
137.17
165.12
188.29
207.08
221.86
233.01
241.13
247.18
252.33
257.70
263.82
270.28
275.57
277.19
272.10
257.45
231.51
194.69
150.15
103.41
60.96
28.37
8.67
1.58
4.03
11.47
19.33
24.13
23.97
18.57
9.17
-1.76
-11.04
-15.64
-13.75
-5.40
7.59
22.43
36.49
48.24
57.40
64.61
70.87
77.15
84.06
91.70
99.42
105.66
108.29
105.33
96.13
82.05
66.37
53.05
44.76
41.27
39.16
32.87
17.04
-11.29
-51.46
-99.58
-150.03
-197.44
-238.07
-270.41
-295.12
-314.59
-332.20
-351.13
-372.82
-395.56
-414.33
-422.32
-413.88
-387.36
-346.26
-297.84
-249.90
-207.60
-171.88
-140.37
-109.58
-77.20
-42.87
-7.53
27.77
62.60
97.00
130.74
162.73
191.21
214.31
230.77
240.31
243.43
241.05
234.05
223.04
208.51
191.22
172.55
154.80
140.87
133.65
135.04
145.19
162.11
182.09
200.77
214.21
219.97
217.52
208.14
194.23
178.28
161.94
145.32
127.19
105.82
80.13
50.58
19.14
-11.35
-38.20
-59.65
-75.00
-84.45
-88.71
-88.83
-86.16
-82.18
-78.17
-74.78
-71.88
-68.92
-65.63
-62.57
-61.09
-62.76
-68.49
-78.01
-89.91
-102.09
-112.40
-118.98
-120.56
-116.50
-106.77
-92.04
-73.62
-53.17
-32.43
-12.91
4.34
18.62
29.65
37.38
42.08
44.39
45.18
45.30
45.21
44.86
43.63
40.75
35.61
28.20
19.18
9.83
1.69
-3.86
-6.01
-4.71
-0.71
4.70
10.05
13.99
15.62
14.47
10.44
3.78
-5.05
-15.31
-26.00
-35.93
-44.00
-49.37
-51.81
-51.73
-50.14
-48.34
-47.59
-48.76
-52.11
-57.31
-63.71
-70.61
-77.61
-84.70
-92.09
-99.93
-107.98
-115.48
-121.31
-124.17
-122.78
-115.90
-102.29
-81.07
-52.13
-16.70
22.48
61.68
97.15
126.20
147.74
162.15
170.56
174.12
173.64
169.76
163.39
155.90
148.93
143.79
140.96
139.87
139.19
137.32
133.05
125.90
116.35
105.57
95.02
85.93
78.88
73.66
69.42
65.10
59.90
53.46
45.92
37.66
29.02
20.31
11.77
3.75
-3.26
-8.80
-12.63
-14.92
-16.27
-17.57
-19.62
-22.89
-27.29
-32.32
-37.31
-41.63
-44.96
-47.39
-49.25
-51.01
-53.00
-55.25
-57.34
-58.50
-57.75
-54.27
-47.70
-38.32
-27.12
-15.49
-4.88
3.60
9.43
12.65
13.72
13.34
12.11
10.59
9.15
8.05
7.39
7.06
6.75
6.02
4.53
2.17
-0.84
-4.01
-6.79
-8.89
-10.39
-11.72
-13.37
-15.53
-17.90
-19.68
-19.87
-17.70
-13.03
-6.43
1.03
8.08
13.76
17.51
19.21
19.02
17.23
14.19
10.35
6.25
2.48
-0.49
-2.47
-3.56
-4.15
-4.65
-5.41
-6.61
-8.24
-10.28
-12.71
-15.58
-18.84
-22.27
-25.41
-27.55
-27.95
-26.03
-21.65
-15.12
-7.23
0.99
8.51
14.53
18.62
20.69
20.88
19.49
16.92
13.63
10.20
7.22
5.17
4.25
4.35
4.96
5.46
5.24
3.99
1.68
-1.49
-5.33
-9.80
-14.98
-20.90
-27.30
-33.51
-38.52
-41.34
-41.32
-38.50
-33.60
-27.85
-22.51
-18.66
-16.99
-17.81
-21.12
-26.71
-34.08
-42.43
-50.67
-57.65
-62.42
-64.64
-64.65
-63.41
-62.17
-61.97
-63.36
-66.29
-70.25
-74.60
-78.80
-82.50
-85.44
-87.26
-87.32
-84.71
-78.42
-67.55
-51.67
-30.86
-5.77
22.53
52.78
83.76
114.47
144.10
171.94
197.35
219.86
239.34
256.12
270.88
284.51
297.53
309.89
320.84
329.15
333.57
333.21
327.69
317.05
301.50
281.28
256.64
227.99
196.28
163.04
130.17
99.46
71.89
47.14
23.66
-0.68
-27.55
-57.36
-88.96
-120.12
-148.31
-171.63
-189.30
-201.55
-209.18
-213.12
-214.10
-212.65
-209.24
-204.37
-198.57
-192.30
-185.85
-179.33
-172.73
-166.07
-159.45
-153.07
-147.04
-141.21
-135.05
-127.62
-117.93
-105.35
-90.04
-73.04
-56.02
-40.77
-28.64
-20.05
-14.49
-10.87
-7.97
-4.94
-1.49
2.02
4.91
6.51
6.51
5.28
3.82
3.52
5.48
9.95
15.94
21.43
24.10
22.19
15.41
5.16
-5.76
-13.91
-16.18
-10.63
3.03
23.27
47.01
70.25
89.00
100.19
102.31
95.52
81.40
62.32
40.93
19.77
1.10
-13.31
-22.48
-26.50
-26.69
-25.28
-24.70
-26.70
-31.76
-38.98
-46.66
-53.13
-57.38
-59.47
-60.21
-60.66
-61.53
-62.69
-63.03
-60.70
-53.66
-40.57
-21.53
1.45
24.79
44.25
56.34
59.37
53.85
42.08
27.18
12.24
-0.27
-8.68
-12.17
-10.72
-5.25
2.49
10.31
16.06
18.30
16.60
11.55
4.46
-3.02
-9.25
-12.87
-13.00
-9.62
-3.57
3.57
9.94
14.07
15.37
14.36
12.34
10.87
11.27
14.10
19.03
24.87
29.86
32.15
30.35
24.07
14.06
2.05
-9.92
-20.19
-28.00
-33.62
-37.89
-41.59
-44.99
-47.62
-48.56
-46.95
-42.39
-35.23
-26.42
-17.20
-8.69
-1.66
3.59
7.05
8.73
8.68
6.94
3.76
-0.34
-4.62
-8.28
-10.77
-11.98
-12.28
-12.35
-12.93
-14.56
-17.38
-21.04
-24.92
-28.39
-31.13
-33.23
-34.96
-36.44
-37.26
-36.46
-32.96
-26.11
-16.24
-4.68
6.70
16.24
23.02
27.12
29.25
30.21
30.43
29.90
28.42
25.97
22.99
20.20
18.37
17.84
18.32
18.98
18.76
16.86
12.91
7.11
-0.03
-7.85
-15.65
-22.66
-27.98
-30.67
-29.94
-25.40
-17.41
-7.00
4.24
14.67
22.96
28.45
31.19
31.79
31.09
29.87
28.66
27.68
26.88
26.16
25.37
24.39
23.10
21.37
19.06
16.15
12.77
9.22
5.83
2.83
0.09
-2.83
-6.53
-11.46
-17.58
-24.23
-30.22
-34.17
-34.97
-32.17
-26.08
-17.71
-8.40
0.53
8.11
13.82
17.55
19.47
19.90
19.15
17.57
15.54
13.49
11.89
11.15
11.46
12.75
14.69
16.76
18.43
19.29
19.17
18.04
16.02
13.29
10.13
6.82
3.65
0.91
-1.33
-3.15
-4.92
-7.19
-10.56
-15.47
-21.97
-29.50
-36.86
-42.47
-44.77
-42.87
-36.85
-27.77
-17.33
-7.22
1.32
7.73
12.03
14.53
15.54
15.32
14.12
12.28
10.17
8.20
6.60
5.42
4.52
3.63
2.45
0.76
-1.62
-4.75
-8.57
-12.89
-17.46
-22.00
-26.30
-30.32
-34.22
-38.29
-42.96
-48.60
-55.41
-63.21
-71.31
-78.51
-83.32
-84.40
-81.03
-73.40
-62.65
-50.48
-38.68
-28.52
-20.56
-14.69
-10.40
-7.07
-4.16
-1.32
1.73
5.17
9.07
13.33
17.64
21.60
24.80
26.97
28.07
28.27
27.87
27.07
25.97
24.47
22.36
19.41
15.57
11.06
6.46
2.55
0.06
-0.43
1.18
4.54
8.94
13.53
17.55
20.52
22.27
22.86
22.39
20.90
18.35
14.70
10.15
5.20
0.62
-2.64
-3.77
-2.47
0.93
5.39
9.46
11.77
11.37
8.13
2.67
-3.92
-10.44
-15.93
-19.74
-21.53
-21.11
-18.41
-13.50
-6.73
1.30
9.89
18.45
26.61
34.20
41.02
46.64
50.40
51.70
50.24
46.36
40.97
35.31
30.47
27.09
25.27
24.66
24.66
24.56
23.73
21.68
18.23
13.58
8.34
3.32
-0.73
-3.35
-4.46
-4.20
-2.73
-0.05
3.94
9.29
15.74
22.63
29.05
34.10
37.15
38.07
37.18
35.19
32.89
31.02
30.04
30.01
30.61
31.13
30.77
28.90
25.41
20.84
16.37
13.50
13.59
17.25
23.91
31.64
37.48
38.24
31.60
17.03
-3.80
-27.44
-49.74
-67.16
-77.71
-81.20
-78.78
-72.11
-62.78
-51.99
-40.72
-30.04
-21.10
-14.92
-11.95
-11.77
-13.15
-14.53
-14.56
-12.63
-8.91
-4.11
1.05
6.12
11.02
15.85
20.62
25.12
29.02
32.02
34.07
35.28
35.81
35.71
34.73
32.54
28.88
23.76
17.59
11.11
5.17
0.48
-2.53
-3.84
-3.75
-2.81
-1.65
-0.94
-1.25
-2.91
-6.00
-10.19
-14.91
-19.47
-23.29
-26.02
-27.61
-28.21
-28.04
-27.32
-26.24
-25.02
-23.86
-22.89
-22.16
-21.57
-21.01
-20.38
-19.77
-19.46
-19.80
-20.98
-22.89
-24.99
-26.44
-26.37
-24.17
-19.75
-13.56
-6.48
0.48
6.48
11.06
14.12
15.80
16.35
16.00
14.91
13.21
11.02
8.52
5.88
3.28
0.83
-1.40
-3.35
-4.95
-6.10
-6.77
-6.98
-6.95
-6.95
-7.34
-8.39
-10.31
-13.06
-16.40
-19.80
-22.52
-23.77
-22.93
-19.79
-14.69
-8.47
-2.19
3.21
7.18
9.65
10.83
11.07
10.61
9.64
8.35
7.04
6.07
5.71
6.02
6.81
7.70
8.34
8.52
8.22
7.47
6.22
4.30
1.50
-2.31
-7.04
-12.39
-17.94
-23.23
-27.82
-31.33
-33.40
-33.74
-32.30
-29.25
-25.06
-20.41
-15.91
-12.06
-9.14
-7.22
-6.26
-6.17
-6.80
-7.96
-9.45
-11.04
-12.45
-13.28
-13.11
-11.54
-8.38
-3.82
1.57
6.96
11.55
14.82
16.61
17.07
16.47
15.08
13.15
10.97
8.93
7.55
7.34
8.63
11.43
15.32
19.68
23.74
26.90
28.79
29.35
28.74
27.25
25.18
22.78
20.26
17.80
15.55
13.62
12.16
11.25
10.93
11.11
11.57
11.99
12.01
11.40
10.06
8.03
5.43
2.39
-0.97
-4.43
-7.66
-10.19
-11.49
-11.15
-9.10
-5.66
-1.45
2.77
6.29
8.65
9.67
9.44
8.25
6.46
4.46
2.60
1.13
0.21
-0.15
-0.10
0.11
0.21
0.01
-0.54
-1.35
-2.31
-3.38
-4.63
-6.24
-8.37
-10.99
-13.85
-16.40
-17.96
-17.92
-15.93
-12.10
-6.90
-1.15
4.32
8.75
11.75
13.17
13.19
12.14
10.45
8.62
7.08
6.18
5.99
6.39
7.00
7.43
7.39
6.87
6.07
5.28
4.65
4.08
3.22
1.65
-0.91
-4.38
-8.35
-12.14
-15.02
-16.43
-16.11
-14.15
-10.92
-6.96
-2.80
1.08
4.27
6.44
7.35
6.90
5.18
2.54
-0.48
-3.29
-5.45
-6.71
-7.08
-6.73
-5.83
-4.54
-3.03
-1.44
-0.01
0.97
1.26
0.72
-0.60
-2.52
-4.66
-6.55
-7.62
-7.37
-5.45
-1.82
3.19
8.91
14.53
19.34
22.83
24.81
25.38
24.81
23.44
21.64
19.73
17.93
16.39
15.08
13.88
12.62
11.19
9.51
7.58
5.45
3.14
0.63
-2.12
-5.17
-8.60
-12.43
-16.50
-20.52
-23.96
-26.20
-26.73
-25.34
-22.27
-18.13
-13.79
-10.03
-7.37
-5.98
-5.75
-6.45
-7.84
-9.73
-11.99
-14.49
-17.04
-19.40
-21.28
-22.40
-22.54
-21.61
-19.65
-16.94
-13.94
-11.29
-9.59
-9.14
-9.73
-10.62
-10.68
-8.80
-4.35
2.59
11.21
20.28
28.59
35.25
39.98
42.88
44.30
44.63
44.05
42.69
40.62
37.99
35.00
31.92
28.91
26.00
23.12
20.22
17.34
14.65
12.45
10.92
10.07
9.61
9.08
7.95
5.93
2.98
-0.52
-3.91
-6.43
-7.42
-6.56
-3.95
-0.04
4.48
8.87
12.55
15.14
16.54
16.90
16.46
15.57
14.53
13.56
12.74
12.07
11.43
10.66
9.64
8.33
6.79
5.12
3.44
1.74
-0.00
-1.91
-4.12
-6.71
-9.75
-13.17
-16.80
-20.25
-22.98
-24.39
-24.04
-21.78
-17.92
-13.10
-8.10
-3.59
0.02
2.64
4.36
5.30
5.58
5.31
4.62
3.74
2.94
2.50
2.51
2.88
3.33
3.48
3.05
1.95
0.37
-1.36
-2.93
-4.20
-5.25
-6.33
-7.76
-9.77
-12.31
-15.10
-17.62
-19.28
-19.57
-18.22
-15.30
-11.15
-6.31
-1.39
3.08
6.74
9.46
11.23
12.22
12.65
12.80
12.94
13.23
13.70
14.29
14.85
15.29
15.55
15.65
15.63
15.45
15.00
14.15
12.77
10.83
8.40
5.69
2.88
0.14
-2.51
-5.13
-7.85
-10.75
-13.80
-16.78
-19.35
-21.08
-21.60
-20.68
-18.33
-14.79
-10.51
-6.02
-1.82
1.66
4.18
5.60
5.92
5.26
3.83
1.96
0.05
-1.53
-2.52
-2.87
-2.79
-2.57
-2.56
-2.92
-3.68
-4.69
-5.75
-6.73
-7.59
-8.36
-9.06
-9.71
-10.29
-10.83
-11.49
-12.47
-13.95
-15.87
-17.88
-19.37
-19.75
-18.62
-15.95
-12.09
-7.59
-3.01
1.20
4.74
7.45
9.19
9.87
9.50
8.29
6.66
5.16
4.29
4.31
5.16
6.45
7.69
8.43
8.42
7.67
6.36
4.78
3.16
1.67
0.37
-0.77
-1.85
-3.06
-4.54
-6.42
-8.66
-11.04
-13.16
-14.57
-14.83
-13.67
-11.09
-7.32
-2.77
2.13
7.02
11.65
15.87
19.56
22.61
24.96
26.61
27.65
28.26
28.66
29.03
29.45
29.90
30.35
30.77
31.17
31.59
32.00
32.32
32.42
32.19
31.54
30.52
29.14
27.44
25.36
22.80
19.72
16.16
12.34
8.54
5.01
1.79
-1.24
-4.36
-7.86
-11.82
-16.08
-20.31
-24.14
-27.37
-30.03
-32.28
-34.26
-35.94
-37.04
-37.21
-36.25
-34.20
-31.46
-28.55
-26.00
-24.12
-22.94
-22.30
-21.93
-21.64
-21.30
-20.98
-20.89
-21.24
-22.25
-23.95
-26.15
-28.39
-30.07
-30.57
-29.44
-26.48
-21.85
-15.99
-9.53
-3.20
2.31
6.46
8.99
9.91
9.54
8.39
6.96
5.65
4.60
3.72
2.79
1.51
-0.37
-2.98
-6.26
-9.88
-13.25
-15.76
-17.07
-17.32
-17.19
-17.53
-19.02
-21.78
-25.43
-29.42
-33.45
-37.65
-42.24
-47.19
-51.83
-55.10
-56.14
-54.78
-51.68
-47.90
-44.24
-40.84
-37.37
-33.56
-29.77
-27.11
-27.04
-30.57
-37.77
-47.65
-58.62
-69.15
-78.11
-84.85
-88.88
-89.64
-86.54
-79.14
-67.62
-52.88
-36.33
-19.46
-3.24
12.18
27.38
43.23
60.39
78.97
98.52
118.26
137.46
155.72
173.06
189.87
206.66
223.79
241.33
259.09
276.69
293.74
309.89
324.64
337.32
347.12
353.40
356.05
355.77
353.94
352.26
352.22
354.58
358.99
363.85
366.40
363.13
350.57
326.17
289.21
241.02
184.52
123.18
60.01
-2.98
-64.34
-122.44
-174.82
-218.44
-250.74
-270.90
-280.45
-282.78
-281.74
-280.07
-278.56
-276.33
-272.02
-264.98
-255.82
-245.84
-236.19
-227.06
-217.87
-208.05
-197.94
-189.04
-183.34
-182.24
-185.55
-191.42
-196.99
-199.52
-197.39
-190.34
-179.25
-165.49
-150.46
-135.34
-121.12
-108.53
-97.99
-89.50
-82.64
-76.72
-71.08
-65.30
-59.36
-53.52
-48.21
-43.82
-40.60
-38.64
-37.89
-38.24
-39.49
-41.45
-43.94
-46.81
-49.94
-53.22
-56.48
-59.41
-61.52
-62.24
-61.00
-57.44
-51.60
-43.91
-35.16
-26.32
-18.31
-11.87
-7.42
-5.04
-4.56
-5.66
-7.84
-10.58
-13.34
-15.59
-16.94
-17.16
-16.30
-14.63
-12.58
-10.62
-9.12
-8.28
-8.13
-8.63
-9.75
-11.46
-13.61
-15.85
-17.54
-17.88
-16.11
-11.83
-5.19
3.11
11.97
20.23
26.94
31.61
34.13
34.77
33.99
32.28
30.17
28.12
26.50
25.56
25.30
25.49
25.75
25.70
25.14
24.03
22.46
20.45
17.84
14.36
9.81
4.26
-1.78
-7.39
-11.46
-13.09
-11.79
-7.70
-1.53
5.68
12.83
19.05
23.80
26.89
28.37
28.47
27.48
25.84
24.02
22.57
21.92
22.27
23.48
25.07
26.40
26.91
26.29
24.61
22.20
19.51
16.88
14.41
11.97
9.24
5.92
1.84
-2.88
-7.76
-12.03
-14.80
-15.32
-13.20
-8.64
-2.32
4.77
11.62
17.51
22.06
25.22
27.07
27.73
27.34
26.08
24.24
22.24
20.52
19.34
18.71
18.38
17.92
16.97
15.37
13.19
10.68
8.11
5.67
3.41
1.22
-1.12
-3.90
-7.35
-11.58
-16.32
-20.94
-24.51
-26.06
-24.97
-21.23
-15.52
-8.93
-2.65
2.40
5.80
7.58
8.08
7.77
7.08
6.39
5.94
5.87
6.20
6.86
7.67
8.36
8.71
8.47
7.53
5.83
3.44
0.50
-2.83
-6.43
-10.22
-14.13
-17.94
-21.21
-23.27
-23.42
-21.18
-16.55
-10.11
-2.84
4.20
10.12
14.40
16.89
17.71
17.14
15.54
13.36
11.07
9.11
7.76
7.14
7.17
7.65
8.29
8.80
8.95
8.58
7.68
6.28
4.48
2.33
-0.24
-3.24
-6.57
-9.84
-12.37
-13.39
-12.31
-9.02
-4.00
1.85
7.47
12.02
15.06
16.50
16.52
15.42
13.55
11.29
9.05
7.20
5.99
5.48
5.47
5.68
5.80
5.63
5.05
4.03
2.54
0.57
-1.92
-4.89
-8.33
-12.16
-16.22
-20.25
-23.79
-26.25
-27.06
-25.83
-22.64
-18.03
-12.92
-8.40
-5.36
-4.32
-5.39
-8.30
-12.50
-17.33
-22.10
-26.26
-29.46
-31.66
-33.13
-34.33
-35.82
-38.02
-41.14
-45.03
-49.27
-53.29
-56.60
-58.98
-60.59
-61.82
-62.95
-63.70
-63.04
-59.27
-50.54
-35.53
-14.07
12.65
42.30
72.06
99.33
122.26
140.03
152.75
161.07
165.94
168.22
168.61
167.61
165.52
162.42
158.14
152.18
143.83
132.32
117.20
98.50
76.93
53.71
30.28
7.90
-12.62
-31.10
-47.74
-62.81
-76.30
-87.61
-95.62
-99.00
-96.65
-88.06
-73.65
-54.70
-33.01
-10.59
10.89
30.33
47.36
62.19
75.31
86.95
96.72
103.62
106.37
104.05
96.65
85.20
71.38
56.87
42.73
29.24
16.14
3.12
-9.64
-21.50
-31.62
-39.35
-44.57
-47.67
-49.39
-50.55
-51.88
-53.84
-56.52
-59.61
-62.45
-64.26
-64.37
-62.54
-59.07
-54.69
-50.27
-46.46
-43.52
-41.29
-39.46
-37.86
-36.65
-36.38
-37.86
-41.75
-48.23
-56.65
-65.61
-73.15
-77.31
-76.64
-70.56
-59.37
-44.21
-26.87
-9.53
5.58
16.60
22.58
23.80
21.70
18.38
15.78
15.05
16.27
18.67
21.19
22.95
23.44
22.55
20.39
17.30
13.90
10.99
9.43
9.79
12.05
15.62
19.51
22.75
24.77
25.54
25.51
25.34
25.67
26.84
28.89
31.49
34.07
36.02
36.78
36.09
33.98
30.80
27.06
23.30
19.94
17.21
15.19
13.77
12.75
11.86
10.80
9.29
7.19
4.49
1.31
-2.14
-5.68
-9.12
-12.28
-14.89
-16.61
-17.10
-16.16
-13.81
-10.36
-6.30
-2.23
1.33
3.95
5.38
5.58
4.81
3.53
2.43
2.08
2.82
4.49
6.55
8.31
9.21
9.06
8.09
6.84
5.89
5.63
6.08
6.87
7.24
6.18
2.82
-3.21
-11.22
-19.36
-24.91
-25.11
-18.19
-4.05
15.55
37.64
58.99
77.04
90.42
98.93
103.26
104.65
104.58
104.48
105.51
108.13
112.08
116.38
119.85
121.57
121.12
118.61
114.41
108.82
102.06
94.30
85.89
77.32
68.98
60.95
52.90
44.27
34.74
24.49
14.15
4.31
-5.09
-15.06
-27.23
-42.92
-62.26
-84.04
-106.29
-127.37
-146.66
-164.34
-180.27
-193.10
-200.15
-198.50
-186.70
-165.80
-139.35
-111.85
-87.17
-67.47
-53.41
-44.97
-42.12
-44.79
-52.28
-62.76
-73.54
-82.00
-86.64
-87.58
-86.14
-83.98
-82.25
-81.28
-80.96
-81.16
-82.09
-84.19
-87.77
-92.61
-97.91
-102.41
-104.77
-103.91
-99.26
-90.88
-79.40
-65.74
-50.90
-35.71
-20.77
-6.51
6.61
18.11
27.51
34.49
39.15
41.93
43.52
44.59
45.54
46.39
46.91
46.79
45.87
44.20
42.03
39.63
37.25
34.92
32.52
29.81
26.56
22.61
17.90
12.51
6.64
0.73
-4.54
-8.34
-9.84
-8.50
-4.25
2.40
10.55
19.11
27.08
33.61
38.19
40.56
40.69
38.85
35.49
31.25
26.81
22.73
19.35
16.71
14.61
12.79
10.99
9.07
6.96
4.61
1.90
-1.35
-5.30
-10.07
-15.57
-21.58
-27.71
-33.45
-38.19
-41.30
-42.20
-40.62
-36.74
-31.20
-24.93
-18.93
-13.94
-10.28
-7.93
-6.60
-5.97
-5.70
-5.50
-5.13
-4.36
-3.08
-1.36
0.52
2.27
3.61
4.44
4.83
4.87
4.55
3.75
2.21
-0.24
-3.55
-7.33
-10.86
-13.29
-13.86
-12.09
-7.93
-1.84
5.41
12.89
19.83
25.79
30.75
34.90
38.47
41.57
44.15
46.16
47.65
48.84
50.08
51.52
53.07
54.33
54.65
53.49
50.55
45.91
39.89
32.94
25.39
17.43
9.15
0.61
-7.97
-16.20
-23.52
-29.30
-32.98
-34.18
-32.79
-29.05
-23.55
-17.08
-10.47
-4.42
0.72
4.88
8.18
10.75
12.63
13.79
14.24
14.12
13.68
13.32
13.34
13.90
14.92
16.11
17.05
17.35
16.73
15.10
12.54
9.30
5.65
1.86
-1.88
-5.50
-9.07
-12.79
-16.93
-21.74
-27.20
-32.91
-38.05
-41.55
-42.44
-40.16
-34.82
-27.17
-18.33
-9.43
-1.26
5.74
11.51
16.09
19.53
21.83
23.00
23.19
22.72
22.07
21.65
21.75
22.37
23.23
23.90
23.93
23.05
21.23
18.69
15.73
12.64
9.61
6.69
3.81
0.92
-2.11
-5.41
-9.15
-13.43
-18.03
-22.35
-25.37
-25.90
-23.03
-16.51
-6.96
4.27
15.52
25.24
32.45
36.78
38.43
37.91
35.89
33.08
30.19
27.83
26.44
26.12
26.57
27.18
27.21
26.04
23.41
19.44
14.56
9.29
4.09
-0.78
-5.27
-9.49
-13.65
-17.95
-22.58
-27.61
-32.93
-38.18
-42.75
-45.84
-46.76
-45.07
-40.91
-34.95
-28.24
-21.87
-16.68
-13.05
-10.99
-10.25
-10.55
-11.69
-13.50
-15.83
-18.45
-21.12
-23.71
-26.22
-28.88
-32.01
-35.95
-40.79
-46.46
-52.73
-59.37
-66.27
-73.41
-80.80
-88.39
-96.03
-103.48
-110.59
-117.26
-123.42
-128.92
-133.35
-136.10
-136.60
-134.58
-130.15
-123.82
-116.31
-108.21
-99.94
-91.73
-83.75
-76.09
-68.80
-61.69
-54.28
-45.77
-35.28
-22.13
-6.08
12.52
32.76
53.48
73.49
91.91
108.26
122.45
134.56
144.61
152.38
157.49
159.52
158.33
154.28
148.20
141.23
134.42
128.38
123.11
117.95
111.83
103.42
91.45
74.92
53.30
26.86
-3.03
-33.93
-62.77
-86.68
-103.93
-114.43
-119.42
-120.61
-118.98
-114.26
-105.20
-90.55
-70.11
-45.17
-18.13
8.66
33.95
57.94
81.92
107.28
134.50
162.78
190.40
215.59
237.35
255.72
271.30
284.52
294.99
301.58
303.02
298.69
288.93
274.90
257.77
238.07
215.50
189.42
159.64
126.97
93.19
60.45
30.41
3.72
-20.06
-41.98
-63.25
-84.69
-106.49
-128.33
-149.57
-169.43
-187.17
-202.13
-213.63
-221.08
-224.03
-222.26
-215.98
-205.86
-193.00
-178.79
-164.60
-151.59
-140.58
-132.00
-125.93
-122.14
-120.03
-118.77
-117.25
-114.42
-109.53
-102.41
-93.47
-83.46
-73.12
-62.79
-52.30
-41.13
-28.72
-14.77
0.66
17.25
34.75
53.09
72.50
93.28
115.61
139.34
163.95
188.56
212.04
233.23
250.91
264.08
271.95
274.13
270.65
261.98
248.95
232.39
212.91
190.68
165.45
136.90
105.14
71.03
36.17
2.58
-28.05
-54.78
-77.69
-97.54
-115.24
-131.40
-145.97
-158.43
-168.08
-174.48
-177.65
-178.13
-176.84
-174.95
-173.61
-173.85
-176.30
-180.88
-186.70
-192.07
-195.11
-194.46
-189.94
-182.75
-174.90
-168.28
-163.74
-160.74
-157.87
-153.81
-148.20
-141.86
-136.22
-132.41
-130.60
-129.89
-128.74
-125.55
-118.94
-107.73
-90.83
-67.27
-36.62
0.38
41.32
82.03
117.23
141.41
149.94
140.22
112.59
70.86
22.01
-25.32
-63.03
-86.13
-93.98
-90.07
-80.01
-69.09
-60.34
-54.13
-49.20
-44.22
-38.85
-33.80
-30.09
-28.07
-27.01
-25.53
-22.40
-17.24
-10.57
-3.26
4.20
12.18
21.74
33.99
49.33
67.06
85.58
103.00
117.88
129.78
139.12
146.65
152.86
157.54
159.81
158.60
153.16
143.54
130.65
115.88
100.58
85.61
71.26
57.54
44.67
33.29
24.28
18.45
16.09
16.95
20.33
25.42
31.59
38.47
45.84
53.27
59.82
63.88
63.34
56.26
41.61
19.93
-6.63
-34.91
-61.68
-84.47
-101.88
-113.34
-118.61
-117.47
-109.87
-96.30
-78.19
-57.79
-37.68
-20.04
-6.17
3.78
10.56
15.53
20.07
25.26
31.51
38.50
45.36
51.16
55.33
57.95
59.79
61.92
65.16
69.78
75.34
80.94
85.60
88.58
89.49
88.28
85.07
80.18
74.12
67.61
61.46
56.35
52.56
49.89
47.78
45.65
43.25
40.69
38.28
36.30
34.77
33.67
33.10
33.51
35.59
39.90
46.62
55.34
65.37
76.05
86.97
97.84
108.32
117.85
125.83
131.97
136.63
140.65
144.93
149.82
154.77
158.53
159.72
157.61
152.48
145.48
138.04
131.30
125.77
121.38
117.90
115.23
113.52
113.10
114.16
116.43
118.96
120.11
117.79
109.95
95.31
73.83
46.97
17.18
-12.94
-41.60
-68.37
-93.97
-119.40
-145.02
-170.13
-193.25
-212.88
-228.20
-239.42
-247.40
-253.08
-256.87
-258.59
-257.72
-253.96
-247.55
-239.28
-230.20
-221.11
-212.23
-203.11
-192.86
-180.61
-165.90
-148.96
-130.66
-112.18
-94.65
-78.85
-65.10
-53.40
-43.55
-35.41
-28.83
-23.65
-19.65
-16.48
-13.77
-11.21
-8.62
-5.98
-3.35
-0.91
1.16
2.59
3.10
2.40
0.29
-3.19
-7.71
-12.59
-16.87
-19.47
-19.51
-16.51
-10.61
-2.53
6.57
15.39
22.83
28.20
31.29
32.29
31.63
29.82
27.39
24.81
22.48
20.63
19.38
18.68
18.37
18.14
17.59
16.22
13.52
9.12
2.99
-4.47
-12.39
-19.60
-24.91
-27.34
-26.37
-22.09
-15.17
-6.80
1.63
8.81
13.88
16.69
17.84
18.39
19.50
22.02
26.14
31.39
36.79
41.17
43.54
43.43
41.04
37.30
33.54
31.04
30.53
31.98
34.48
36.55
36.54
33.00
24.92
12.01
-5.29
-25.61
-46.77
-66.18
-81.32
-90.49
-93.26
-90.47
-83.81
-75.12
-65.80
-56.56
-47.46
-38.26
-28.71
-18.72
-8.33
2.36
13.21
24.06
34.64
44.50
53.10
59.92
64.57
66.93
67.16
65.68
63.06
59.94
56.88
54.24
52.12
50.27
48.20
45.34
41.24
35.84
29.54
23.20
17.89
14.60
14.01
16.28
21.05
27.57
34.89
42.09
48.47
53.62
57.41
59.93
61.30
61.71
61.35
60.49
59.46
58.57
57.98
57.61
57.16
56.23
54.51
51.86
48.37
44.08
38.92
32.57
24.65
14.91
3.49
-8.97
-21.48
-32.88
-42.13
-48.39
-51.10
-50.03
-45.39
-37.92
-28.87
-19.91
-12.66
-8.36
-7.51
-9.78
-14.29
-19.88
-25.49
-30.37
-34.16
-36.83
-38.61
-39.91
-41.14
-42.64
-44.61
-47.12
-50.22
-53.97
-58.53
-63.91
-69.91
-75.92
-81.00
-84.18
-84.78
-82.64
-78.07
-71.66
-63.88
-54.95
-44.83
-33.55
-21.52
-9.57
1.08
9.27
14.24
15.84
14.65
11.79
8.80
7.37
9.07
14.89
25.01
38.62
54.16
69.70
83.44
93.99
100.41
102.18
99.09
91.35
79.77
65.68
50.61
35.78
21.69
8.21
-4.97
-17.66
-28.98
-37.70
-43.03
-45.20
-45.43
-45.34
-46.07
-47.86
-50.17
-52.34
-54.07
-55.51
-56.71
-57.25
-56.00
-51.74
-43.74
-32.32
-18.76
-4.71
8.50
20.20
30.35
39.11
46.54
52.49
56.64
58.72
58.76
56.99
53.85
49.70
44.80
39.17
32.81
25.93
19.15
13.47
9.88
8.92
10.26
12.80
15.02
15.43
13.01
7.11
-2.55
-15.94
-32.55
-51.21
-69.96
-86.42
-98.41
-104.65
-105.09
-100.81
-93.55
-85.14
-77.13
-70.61
-66.23
-64.24
-64.39
-66.15
-68.80
-71.75
-74.67
-77.44
-79.87
-81.44
-81.27
-78.26
-71.52
-60.80
-46.58
-30.05
-12.70
3.93
18.58
30.40
39.06
44.76
48.11
49.97
51.11
52.05
52.90
53.51
53.59
52.87
51.18
48.48
44.85
40.47
35.63
30.62
25.63
20.69
15.73
10.60
5.22
-0.36
-5.99
-11.37
-16.05
-19.45
-20.96
-20.11
-16.77
-11.40
-4.94
1.44
6.71
10.27
12.09
12.54
12.16
11.47
10.82
10.42
10.37
10.73
11.48
12.52
13.73
14.96
16.13
17.24
18.34
19.41
20.38
21.05
21.13
20.33
18.49
15.62
12.09
8.56
5.87
4.85
5.96
9.16
13.89
19.28
24.55
29.20
33.07
36.25
38.78
40.55
41.36
41.08
39.75
37.64
35.11
32.48
29.95
27.57
25.37
23.34
21.47
19.58
17.27
14.02
9.27
2.74
-5.40
-14.60
-24.07
-33.08
-41.15
-48.06
-53.63
-57.58
-59.45
-58.80
-55.53
-50.07
-43.36
-36.60
-30.80
-26.59
-24.16
-23.43
-24.14
-25.85
-27.81
-29.06
-28.54
-25.53
-20.05
-12.98
-5.86
-0.33
2.39
1.96
-1.10
-5.69
-10.57
-14.82
-18.02
-20.21
-21.74
-22.98
-24.11
-25.06
-25.54
-25.18
-23.72
-21.04
-17.16
-12.31
-6.78
-0.97
4.59
9.37
12.91
14.97
15.63
15.28
14.49
13.82
13.60
13.89
14.49
15.10
15.47
15.43
14.92
13.93
12.50
10.64
8.41
5.89
3.15
0.24
-2.76
-5.74
-8.48
-10.59
-11.58
-10.99
-8.58
-4.40
1.12
7.31
13.40
18.76
22.93
25.77
27.36
27.94
27.79
27.21
26.46
25.75
25.18
24.80
24.60
24.52
24.54
24.63
24.73
24.77
24.57
23.93
22.61
20.53
17.78
14.63
11.61
9.27
8.18
8.67
10.85
14.52
19.36
24.92
30.84
36.77
42.38
47.22
50.68
52.05
50.63
45.98
37.99
27.11
14.23
0.59
-12.55
-24.18
-33.74
-41.24
-47.05
-51.73
-55.68
-59.13
-62.12
-64.73
-67.15
-69.68
-72.51
-75.46
-77.91
-78.92
-77.56
-73.39
-66.58
-58.00
-48.83
-40.21
-32.93
-27.30
-23.30
-20.68
-19.17
-18.41
-18.07
-17.71
-16.95
-15.52
-13.37
-10.72
-7.97
-5.62
-4.03
-3.38
-3.62
-4.48
-5.60
-6.69
-7.64
-8.55
-9.71
-11.40
-13.76
-16.64
-19.57
-21.85
-22.73
-21.63
-18.32
-13.02
-6.28
1.10
8.36
14.85
20.15
24.06
26.51
27.59
27.52
26.73
25.79
25.26
25.46
26.37
27.63
28.72
29.19
28.87
27.92
26.66
25.38
24.22
23.10
21.83
20.16
17.89
14.93
11.35
7.45
3.76
0.97
-0.29
0.39
3.03
7.28
12.51
18.06
23.31
27.80
31.20
33.32
34.08
33.63
32.24
30.27
28.07
25.88
23.87
22.15
20.84
20.00
19.60
19.37
18.83
17.31
14.20
9.17
2.31
-5.82
-14.39
-22.46
-29.23
-34.16
-36.95
-37.54
-35.99
-32.51
-27.51
-21.57
-15.38
-9.58
-4.66
-0.80
2.02
3.99
5.26
5.99
6.28
6.29
6.23
6.32
6.66
7.21
7.74
8.02
7.86
7.27
6.37
5.36
4.38
3.44
2.48
1.36
0.00
-1.62
-3.40
-5.10
-6.29
-6.42
-4.94
-1.48
3.95
10.89
18.46
25.62
31.45
35.33
37.06
36.79
34.86
31.72
27.83
23.56
19.13
14.52
9.50
3.77
-2.86
-10.21
-17.68
-24.38
-29.45
-32.45
-33.47
-33.18
-32.50
-32.33
-33.25
-35.44
-38.69
-42.54
-46.33
-49.31
-50.77
-50.12
-47.15
-42.11
-35.67
-28.79
-22.39
-17.10
-13.06
-10.02
-7.52
-5.18
-2.87
-0.67
1.21
2.76
4.14
5.70
7.79
10.55
13.84
17.32
20.58
23.29
25.27
26.48
26.95
26.68
25.77
24.39
22.85
21.50
20.71
20.71
21.59
23.24
25.39
27.72
29.89
31.58
32.59
32.80
32.18
30.76
28.64
25.99
23.01
20.01
17.19
14.66
12.30
9.84
7.00
3.62
-0.21
-4.25
-8.16
-11.79
-15.14
-18.45
-21.99
-25.91
-30.16
-34.47
-38.44
-41.59
-43.45
-43.48
-41.30
-36.69
-29.78
-21.16
-11.75
-2.64
5.21
11.19
15.13
17.24
17.96
17.77
17.13
16.39
15.76
15.29
14.88
14.34
13.47
12.12
10.25
7.89
5.12
2.03
-1.30
-4.75
-8.17
-11.36
-14.04
-15.88
-16.56
-15.82
-13.59
-10.01
-5.47
-0.55
4.06
7.72
9.98
10.68
9.97
8.28
6.13
4.04
2.35
1.24
0.69
0.59
0.80
1.18
1.57
1.86
1.93
1.69
1.15
0.36
-0.61
-1.71
-2.95
-4.39
-6.08
-7.90
-9.56
-10.62
-10.67
-9.50
-7.19
-4.06
-0.52
3.06
6.42
9.31
11.44
12.49
12.24
10.77
8.46
5.96
3.87
2.55
1.95
1.83
1.82
1.75
1.62
1.48
1.41
1.29
0.93
0.03
-1.65
-4.23
-7.62
-11.49
-15.28
-18.26
-19.73
-19.17
-16.46
-11.88
-6.12
-0.00
5.63
10.11
13.04
14.32
14.12
12.81
10.91
8.95
7.34
6.37
6.04
6.21
6.56
6.73
6.41
5.37
3.60
1.24
-1.44
-4.28
-7.30
-10.81
-15.23
-20.85
-27.57
-34.63
-40.81
-44.74
-45.43
-42.55
-36.65
-28.83
-20.38
-12.42
-5.74
-0.75
2.41
3.83
3.90
3.29
2.86
3.39
5.25
8.25
11.70
14.78
16.83
17.65
17.49
16.93
16.53
16.72
17.61
19.08
20.76
22.18
22.82
22.22
20.20
16.92
12.94
9.19
6.64
6.11
7.84
11.43
15.88
19.95
22.63
23.39
22.31
19.90
16.76
13.32
9.73
6.01
2.20
-1.48
-4.62
-6.82
-7.84
-7.77
-7.04
-6.20
-5.79
-6.12
-7.28
-9.12
-11.47
-14.13
-16.93
-19.60
-21.76
-22.89
-22.48
-20.24
-16.28
-11.10
-5.45
-0.16
4.15
7.13
8.71
9.06
8.52
7.47
6.35
5.47
5.00
4.89
4.92
4.75
4.14
2.99
1.41
-0.30
-1.77
-2.73
-3.07
-2.89
-2.50
-2.30
-2.70
-3.92
-5.91
-8.34
-10.68
-12.44
-13.32
-13.35
-12.87
-12.32
-12.12
-12.46
-13.28
-14.33
-15.26
-15.77
-15.68
-14.93
-13.57
-11.66
-9.20
-6.18
-2.66
1.20
4.97
8.09
10.05
10.60
9.97
8.74
7.60
6.95
6.78
6.76
6.58
6.31
6.56
8.19
11.90
17.77
25.11
32.62
38.92
43.04
44.71
44.29
42.50
40.04
37.31
34.41
31.23
27.62
23.62
19.43
15.39
11.82
8.85
6.32
3.84
0.96
-2.67
-7.11
-12.14
-17.39
-22.46
-27.05
-30.97
-34.09
-36.24
-37.20
-36.77
-34.94
-31.98
-28.38
-24.70
-21.38
-18.55
-16.15
-13.91
-11.62
-9.15
-6.54
-3.91
-1.40
0.91
2.99
4.86
6.56
8.15
9.64
11.01
12.19
13.07
13.56
13.60
13.09
11.96
10.14
7.71
5.01
2.60
1.25
1.55
3.77
7.71
12.71
17.89
22.49
25.93
27.93
28.44
27.54
25.45
22.52
19.17
15.92
13.10
10.84
8.96
7.09
4.83
1.94
-1.56
-5.43
-9.26
-12.68
-15.44
-17.53
-19.17
-20.81
-22.91
-25.82
-29.48
-33.35
-36.49
-37.81
-36.48
-32.19
-25.27
-16.47
-6.72
3.21
12.77
21.62
29.51
36.20
41.42
45.07
47.31
48.71
50.20
52.90
57.88
65.78
76.56
89.46
103.07
115.69
125.61
131.43
132.15
127.21
116.60
100.92
81.51
60.43
39.94
21.94
7.32
-4.18
-13.58
-21.78
-28.88
-34.07
-36.21
-34.90
-31.14
-27.01
-24.64
-24.79
-26.27
-26.71
-24.08
-17.94
-9.48
-0.38
8.52
17.71
28.09
39.35
49.03
53.10
47.89
32.15
7.90
-20.56
-48.86
-74.31
-96.49
-116.23
-134.11
-149.51
-160.70
-165.99
-164.76
-157.92
-147.57
-135.99
-124.78
-114.26
-103.73
-92.13
-78.80
-63.98
-48.92
-35.37
-24.92
-18.41
-15.71
-15.88
-17.69
-20.13
-22.60
-24.99
-27.35
-29.69
-31.85
-33.59
-34.82
-35.75
-36.81
-38.45
-40.68
-42.92
-44.00
-42.64
-37.92
-29.74
-18.90
-6.89
4.54
13.86
19.96
22.43
21.63
18.82
15.96
15.16
17.98
24.68
34.06
43.87
51.70
55.95
56.27
53.42
48.67
43.12
37.41
31.72
26.11
20.72
15.81
11.67
8.43
6.10
4.60
3.90
3.95
4.69
5.96
7.51
9.07
10.42
11.41
11.93
11.92
11.31
10.10
8.48
6.81
5.51
4.85
4.78
4.82
4.29
2.59
-0.49
-4.67
-9.34
-13.82
-17.77
-21.34
-25.06
-29.57
-35.14
-41.41
-47.40
-51.81
-53.43
-51.63
-46.56
-39.15
-30.83
-23.17
-17.53
-14.74
-14.99
-17.83
-22.35
-27.51
-32.44
-36.63
-39.96
-42.49
-44.25
-45.12
-44.88
-43.42
-41.02
-38.47
-36.99
-37.88
-42.12
-49.98
-60.83
-73.20
-84.99
-93.95
-98.11
-96.21
-87.96
-74.00
-55.69
-34.61
-12.12
11.09
35.12
60.62
88.28
118.09
148.89
178.34
203.47
221.62
231.37
232.94
228.05
219.10
208.33
197.22
186.39
176.04
166.31
157.45
149.54
142.11
133.94
123.36
108.97
90.51
69.12
47.23
27.73
12.90
3.59
-0.90
-2.62
-4.18
-7.99
-15.57
-27.12
-41.53
-56.63
-69.76
-78.59
-81.69
-78.88
-71.08
-59.80
-46.66
-33.04
-20.04
-8.68
0.26
6.36
9.94
12.15
14.80
19.86
28.76
41.94
58.66
77.27
95.55
111.16
121.90
125.83
121.50
108.16
85.99
56.25
21.13
-16.55
-53.84
-88.09
-117.30
-140.20
-156.34
-165.89
-169.56
-168.34
-163.29
-155.24
-144.78
-132.42
-118.90
-105.39
-93.49
-84.90
-80.82
-81.43
-85.58
-90.80
-93.78
-91.07
-80.22
-60.90
-35.37
-8.21
14.94
29.24
32.27
24.68
9.67
-8.33
-25.33
-38.65
-47.15
-50.69
-49.58
-44.20
-34.93
-22.28
-7.03
9.84
27.19
43.76
58.36
69.87
77.26
79.48
75.63
65.18
48.39
26.64
2.44
-21.06
-40.93
-55.27
-63.56
-66.46
-65.14
-60.73
-53.98
-45.38
-35.47
-24.98
-14.76
-5.54
2.21
8.40
13.17
16.79
19.51
21.55
22.98
23.79
23.88
23.13
21.49
18.95
15.53
11.21
6.03
0.23
-5.68
-10.86
-14.41
-15.73
-14.79
-12.14
-8.74
-5.51
-3.06
-1.53
-0.72
-0.30
0.06
0.52
1.07
1.59
1.90
1.80
1.22
0.17
-1.17
-2.58
-3.87
-4.97
-5.95
-7.02
-8.39
-10.20
-12.32
-14.36
-15.79
-16.04
-14.78
-11.97
-7.93
-3.21
1.59
6.02
9.78
12.78
15.01
16.47
17.20
17.27
16.79
15.96
14.98
14.06
13.32
12.75
12.21
11.51
10.44
8.92
6.92
4.50
1.72
-1.35
-4.55
-7.59
-9.99
-11.24
-10.93
-8.94
-5.53
-1.28
3.13
7.07
10.13
12.12
12.97
12.74
11.58
9.80
7.77
5.92
4.58
3.93
3.89
4.26
4.72
4.97
4.75
3.90
2.35
0.15
-2.59
-5.70
-8.97
-12.14
-14.84
-16.64
-17.15
-16.13
-13.64
-10.06
-6.03
-2.24
0.81
2.89
4.12
4.78
5.12
5.32
5.40
5.33
5.06
4.61
4.00
3.31
2.58
1.77
0.82
-0.34
-1.79
-3.57
-5.65
-8.00
-10.56
-13.33
-16.31
-19.50
-22.83
-26.04
-28.71
-30.39
-30.77
-29.80
-27.80
-25.35
-23.09
-21.59
-21.22
-22.09
-24.16
-27.24
-31.03
-35.17
-39.29
-43.05
-46.29
-49.01
-51.35
-53.48
-55.42
-57.00
-57.74
-56.99
-54.10
-48.59
-40.30
-29.41
-16.46
-2.21
12.47
26.72
39.86
51.50
61.52
70.00
77.12
82.98
87.57
90.79
92.50
92.65
91.26
88.49
84.57
79.84
74.65
69.34
64.19
59.34
54.85
50.74
47.04
43.76
40.84
38.15
35.55
32.88
30.09
27.19
24.22
21.16
17.92
14.44
10.74
7.03
3.67
1.11
-0.26
-0.26
1.06
3.38
6.19
8.98
11.35
13.07
14.06
14.39
14.13
13.38
12.26
11.01
9.90
9.18
8.93
8.99
9.06
8.80
8.10
7.08
6.03
5.27
4.88
4.75
4.56
4.00
2.90
1.30
-0.54
-2.25
-3.50
-3.95
-3.40
-1.81
0.72
3.91
7.34
10.59
13.25
15.07
15.94
15.90
15.12
13.87
12.46
11.18
10.26
9.79
9.65
9.60
9.40
8.88
8.04
7.01
5.95
4.97
4.04
3.06
1.86
0.37
-1.42
-3.39
-5.37
-7.15
-8.46
-8.94
-8.21
-5.97
-2.21
2.62
7.68
11.97
14.71
15.63
15.04
13.55
11.78
10.06
8.40
6.67
4.85
3.18
2.00
1.53
1.69
2.10
2.30
1.96
1.02
-0.41
-2.18
-4.22
-6.49
-8.90
-11.14
-12.72
-13.09
-11.90
-9.20
-5.42
-1.28
2.40
4.93
5.72
4.44
0.96
-4.55
-11.41
-18.48
-24.24
-27.17
-26.23
-21.27
-13.13
-3.46
5.81
12.98
17.00
17.53
14.86
9.67
2.85
-4.51
-11.21
-15.98
-17.73
-15.85
-10.55
-2.90
5.41
12.52
16.99
18.23
16.54
12.93
8.62
4.67
1.72
-0.02
-0.62
-0.29
0.72
2.06
3.33
4.05
3.87
2.68
0.65
-1.81
-4.29
-6.46
-8.26
-9.82
-11.31
-12.82
-14.26
-15.39
-15.93
-15.66
-14.54
-12.69
-10.34
-7.78
-5.26
-2.99
-1.19
-0.09
0.12
-0.62
-2.17
-4.19
-6.16
-7.61
-8.26
-8.13
-7.38
-6.27
-4.96
-3.59
-2.29
-1.26
-0.79
-1.11
-2.27
-4.02
-5.85
-7.16
-7.43
-6.40
-4.11
-0.88
2.81
6.39
9.35
11.27
11.95
11.46
10.19
8.66
7.44
6.94
7.29
8.31
9.62
10.75
11.31
11.01
9.78
7.69
5.01
2.14
-0.54
-2.67
-4.15
-5.14
-6.04
-7.33
-9.28
-11.84
-14.54
-16.69
-17.61
-16.97
-14.81
-11.60
-7.90
-4.22
-0.90
1.93
4.20
5.84
6.75
6.89
6.35
5.34
4.16
3.03
2.10
1.41
0.92
0.62
0.50
0.55
0.67
0.70
0.40
-0.41
-1.83
-3.83
-6.24
-8.84
-11.35
-13.47
-14.96
-15.56
-15.14
-13.70
-11.42
-8.67
-5.91
-3.57
-1.90
-0.88
-0.28
0.16
0.62
1.08
1.45
1.61
1.59
1.52
1.58
1.81
2.13
2.36
2.35
2.06
1.58
1.07
0.63
0.25
-0.15
-0.65
-1.25
-1.94
-2.66
-3.41
-4.18
-4.89
-5.34
-5.27
-4.39
-2.64
-0.10
2.95
6.18
9.33
12.19
14.62
16.42
17.40
17.43
16.54
14.99
13.23
11.68
10.62
10.07
9.78
9.36
8.43
6.74
4.27
1.28
-1.77
-4.36
-6.11
-6.91
-7.00
-6.78
-6.69
-7.03
-7.83
-8.91
-9.94
-10.58
-10.54
-9.70
-8.08
-5.83
-3.26
-0.72
1.43
2.96
3.76
3.86
3.45
2.79
2.13
1.70
1.62
1.89
2.40
3.02
3.57
3.93
3.98
3.64
2.90
1.85
0.68
-0.42
-1.27
-1.86
-2.34
-2.93
-3.80
-4.89
-5.87
-6.30
-5.80
-4.25
-1.87
0.87
3.45
5.51
6.95
7.87
8.44
8.73
8.70
8.27
7.40
6.21
4.95
3.86
3.10
2.56
2.02
1.20
-0.06
-1.66
-3.29
-4.59
-5.33
-5.53
-5.50
-5.68
-6.52
-8.23
-10.67
-13.36
-15.64
-16.84
-16.50
-14.51
-11.06
-6.60
-1.72
3.02
7.12
10.22
12.18
13.02
12.98
12.40
11.62
10.83
10.07
9.22
8.12
6.73
5.17
3.74
2.73
2.34
2.54
3.11
3.70
3.94
3.60
2.56
0.82
-1.49
-4.18
-7.00
-9.61
-11.60
-12.61
-12.37
-10.80
-8.08
-4.62
-0.95
2.37
4.90
6.43
6.98
6.78
6.13
5.29
4.40
3.48
2.54
1.65
0.97
0.69
0.90
1.48
2.17
2.61
2.57
1.99
1.02
-0.14
-1.39
-2.73
-4.22
-5.89
-7.59
-9.02
-9.77
-9.55
-8.29
-6.17
-3.61
-1.06
1.11
2.66
3.57
3.91
3.83
3.51
3.16
3.00
3.23
3.95
5.10
6.49
7.78
8.66
8.89
8.43
7.36
5.89
4.19
2.40
0.51
-1.49
-3.61
-5.70
-7.49
-8.57
-8.57
-7.28
-4.76
-1.37
2.32
5.70
8.27
9.72
9.98
9.18
7.60
5.61
3.60
1.90
0.72
0.13
0.06
0.31
0.69
0.96
0.91
0.36
-0.81
-2.63
-5.06
-7.95
-11.18
-14.59
-18.00
-21.14
-23.59
-24.83
-24.39
-22.05
-18.04
-13.03
-7.96
-3.73
-1.02
-0.05
-0.70
-2.54
-5.01
-7.45
-9.17
-9.51
-8.01
-4.56
0.50
6.29
11.72
15.72
17.61
17.23
14.94
11.43
7.43
3.56
0.19
-2.51
-4.48
-5.70
-6.15
-5.78
-4.61
-2.71
-0.16
2.92
6.37
10.00
13.50
16.49
18.52
19.26
18.53
16.51
13.62
10.45
7.57
5.40
4.07
3.50
3.39
3.38
3.15
2.49
1.29
-0.40
-2.45
-4.70
-6.93
-8.88
-10.24
-10.70
-10.05
-8.26
-5.56
-2.38
0.82
3.68
6.03
7.88
9.32
10.42
11.19
11.57
11.50
11.00
10.14
9.04
7.88
6.82
6.01
5.47
5.11
4.69
3.91
2.54
0.47
-2.18
-5.14
-8.06
-10.58
-12.38
-13.21
-12.99
-11.77
-9.78
-7.36
-4.92
-2.80
-1.20
-0.14
0.49
0.85
1.11
1.35
1.65
1.97
2.27
2.49
2.56
2.39
1.93
1.16
0.06
-1.34
-2.99
-4.80
-6.63
-8.35
-9.85
-11.07
-12.00
-12.70
-13.20
-13.50
-13.53
-13.16
-12.26
-10.74
-8.58
-5.91
-2.97
-0.08
2.46
4.45
5.79
6.54
6.80
6.70
6.36
5.85
5.27
4.73
4.30
3.95
3.56
2.94
2.00
0.82
-0.33
-1.13
-1.37
-1.08
-0.53
-0.11
-0.18
-0.88
-2.09
-3.51
-4.75
-5.48
-5.57
-5.09
-4.28
-3.51
-3.05
-3.04
-3.40
-3.93
-4.40
-4.58
-4.35
-3.65
-2.52
-1.05
0.50
1.88
2.85
3.28
3.24
2.99
2.84
3.06
3.75
4.83
6.02
7.04
7.62
7.58
6.86
5.45
3.38
0.77
-2.19
-5.19
-7.83
-9.73
-10.63
-10.52
-9.57
-8.07
-6.18
-3.99
-1.52
1.12
3.64
5.56
6.49
6.25
5.03
3.34
1.74
0.62
0.11
0.09
0.40
0.97
1.87
3.18
4.93
6.92
8.78
10.08
10.46
9.75
8.04
5.59
2.76
-0.12
-2.80
-5.11
-6.90
-8.01
-8.20
-7.29
-5.24
-2.30
1.03
4.12
6.42
7.65
7.91
7.55
7.02
6.66
6.58
6.73
6.91
6.96
6.79
6.43
5.94
5.38
4.78
4.13
3.39
2.54
1.58
0.55
-0.47
-1.43
-2.33
-3.18
-3.99
-4.68
-5.09
-5.03
-4.35
-3.03
-1.26
0.68
2.38
3.53
3.98
3.69
2.81
1.53
0.06
-1.41
-2.66
-3.49
-3.79
-3.46
-2.55
-1.16
0.55
2.35
4.12
5.75
7.17
8.31
9.08
9.40
9.21
8.49
7.33
5.82
4.13
2.44
1.00
0.07
-0.16
0.40
1.63
3.16
4.56
5.46
5.69
5.34
4.60
3.65
2.53
1.21
-0.39
-2.22
-4.12
-5.85
-7.21
-8.15
-8.74
-9.10
-9.30
-9.32
-9.12
-8.67
-8.05
-7.42
-6.96
-6.82
-7.00
-7.44
-8.07
-8.86
-9.83
-10.98
-12.24
-13.39
-14.15
-14.23
-13.48
-11.92
-9.74
-7.24
-4.75
-2.53
-0.79
0.41
1.08
1.37
1.41
1.32
1.22
1.13
1.11
1.17
1.28
1.34
1.19
0.67
-0.27
-1.47
-2.64
-3.46
-3.81
-3.74
-3.53
-3.47
-3.76
-4.40
-5.23
-5.99
-6.44
-6.37
-5.69
-4.42
-2.68
-0.68
1.29
3.02
4.36
5.23
5.65
5.64
5.27
4.58
3.71
2.79
1.96
1.34
0.98
0.88
0.99
1.31
1.88
2.75
3.92
5.31
6.66
7.60
7.73
6.82
4.92
2.32
-0.49
-3.05
-5.04
-6.31
-6.87
-6.78
-6.17
-5.16
-3.97
-2.79
-1.86
-1.29
-1.09
-1.16
-1.41
-1.74
-2.15
-2.69
-3.33
-4.02
-4.60
-4.94
-4.92
-4.50
-3.75
-2.79
-1.78
-0.86
-0.19
0.16
0.15
-0.20
-0.81
-1.53
-2.19
-2.62
-2.68
-2.33
-1.54
-0.36
1.17
2.99
4.98
6.94
8.64
9.89
10.59
10.87
10.93
11.02
11.24
11.52
11.68
11.49
10.85
9.78
8.39
6.78
5.03
3.10
0.96
-1.37
-3.83
-6.31
-8.67
-10.81
-12.64
-14.04
-14.86
-14.94
-14.20
-12.64
-10.49
-8.05
-5.69
-3.75
-2.41
-1.76
-1.70
-2.05
-2.57
-3.04
-3.30
-3.26
-2.91
-2.29
-1.54
-0.79
-0.17
0.19
0.24
-0.02
-0.50
-1.10
-1.77
-2.50
-3.35
-4.36
-5.49
-6.54
-7.22
-7.24
-6.48
-4.99
-3.01
-0.88
1.11
2.79
4.12
5.10
5.75
6.06
6.04
5.72
5.22
4.70
4.30
4.10
4.06
4.08
4.03
3.81
3.38
2.76
2.00
1.16
0.27
-0.60
-1.44
-2.22
-2.93
-3.53
-4.00
-4.26
-4.21
-3.73
-2.75
-1.31
0.39
2.07
3.39
4.09
4.04
3.34
2.22
1.02
0.03
-0.56
-0.70
-0.50
-0.14
0.16
0.21
-0.06
-0.62
-1.37
-2.20
-3.03
-3.84
-4.63
-5.39
-6.07
-6.65
-7.13
-7.53
-7.85
-7.96
-7.64
-6.60
-4.69
-2.00
1.02
3.79
5.75
6.59
6.34
5.32
3.98
2.75
1.91
1.55
1.66
2.12
2.78
3.43
3.89
4.01
3.74
3.10
2.23
1.31
0.50
-0.08
-0.44
-0.66
-0.85
-1.10
-1.45
-1.83
-2.10
-2.08
-1.64
-0.69
0.77
2.59
4.62
6.63
8.46
9.98
11.11
11.81
12.07
11.91
11.39
10.65
9.84
9.11
8.54
8.13
7.83
7.52
7.04
6.25
5.03
3.36
1.35
-0.75
-2.59
-3.88
-4.47
-4.50
-4.28
-4.20
-4.53
-5.28
-6.22
-6.98
-7.22
-6.81
-5.81
-4.48
-3.09
-1.89
-1.03
-0.62
-0.72
-1.36
-2.52
-4.07
-5.76
-7.31
-8.48
-9.11
-9.22
-8.93
-8.45
-7.95
-7.54
-7.26
-7.11
-7.05
-7.07
-7.12
-7.15
-7.13
-6.96
-6.55
-5.84
-4.82
-3.57
-2.23
-0.94
0.19
1.17
2.02
2.80
3.50
4.06
4.39
4.45
4.31
4.12
4.07
4.27
4.65
5.04
5.22
5.03
4.46
3.64
2.72
1.84
1.08
0.44
-0.17
-0.85
-1.75
-2.93
-4.35
-5.80
-6.90
-7.28
-6.66
-5.04
-2.72
-0.18
2.09
3.80
4.89
5.48
5.69
5.61
5.23
4.57
3.69
2.72
1.85
1.26
1.00
0.98
1.02
0.94
0.62
0.03
-0.76
-1.63
-2.46
-3.24
-4.02
-4.90
-5.93
-7.05
-8.05
-8.60
-8.39
-7.26
-5.23
-2.58
0.29
2.94
5.06
6.49
7.34
7.83
8.20
8.61
9.11
9.61
9.98
10.12
10.02
9.77
9.47
9.17
8.82
8.33
7.55
6.31
4.44
1.84
-1.45
-5.12
-8.54
-10.93
-11.58
-10.20
-7.07
-2.98
1.06
4.17
5.84
6.01
4.87
2.71
-0.14
-3.36
-6.53
-9.22
-11.04
-11.77
-11.36
-9.95
-7.76
-5.01
-1.94
1.20
4.15
6.68
8.71
10.20
11.12
11.27
10.24
7.51
2.74
-3.92
-11.73
-19.43
-25.61
-29.21
-29.81
-27.75
-23.93
-19.55
-15.65
-12.96
-11.66
-11.40
-11.40
-10.79
-9.04
-6.29
-3.37
-1.40
-1.21
-2.71
-4.81
-5.87
-4.45
-0.05
6.70
14.40
21.58
27.26
31.27
33.95
35.80
37.15
38.04
38.35
37.93
36.76
34.98
32.79
30.50
28.37
26.64
25.38
24.53
23.93
23.37
22.65
21.60
20.01
17.68
14.43
10.28
5.47
0.58
-3.67
-6.59
-7.78
-7.18
-5.01
-1.71
2.25
6.35
10.04
12.67
13.52
11.89
7.40
0.12
-9.20
-19.23
-28.36
-35.13
-38.63
-38.74
-36.07
-31.68
-26.79
-22.34
-18.94
-16.77
-15.67
-15.30
-15.19
-14.86
-13.90
-12.03
-9.14
-5.37
-1.10
3.14
6.73
9.16
10.14
9.67
8.01
5.63
3.02
0.63
-1.25
-2.53
-3.25
-3.58
-3.72
-3.84
-4.03
-4.27
-4.50
-4.69
-4.91
-5.26
-5.84
-6.60
-7.31
-7.66
-7.32
-6.18
-4.37
-2.23
-0.14
1.61
2.87
3.68
4.09
4.20
4.00
3.53
2.83
2.01
1.16
0.37
-0.30
-0.86
-1.34
-1.75
-2.13
-2.53
-3.05
-3.80
-4.83
-6.09
-7.45
-8.74
-9.85
-10.79
-11.71
-12.84
-14.31
-16.10
-17.97
-19.52
-20.35
-20.11
-18.68
-16.19
-12.94
-9.32
-5.73
-2.37
0.73
3.79
7.13
11.14
16.06
21.90
28.34
34.74
40.28
44.17
45.92
45.53
43.43
40.30
36.72
32.92
28.77
23.85
17.79
10.47
2.12
-6.66
-15.13
-22.58
-28.46
-32.46
-34.49
-34.68
-33.31
-30.77
-27.52
-24.08
-20.91
-18.44
-16.92
-16.38
-16.59
-17.12
-17.43
-17.06
-15.72
-13.35
-10.12
-6.33
-2.32
1.59
5.13
8.05
10.16
11.46
12.11
12.50
13.06
14.07
15.47
16.78
17.25
16.12
12.87
7.43
0.28
-7.69
-15.34
-21.50
-25.35
-26.49
-25.13
-21.94
-17.83
-13.70
-10.11
-7.26
-4.94
-2.73
-0.18
3.02
6.91
11.22
15.38
18.58
20.03
19.21
16.09
11.24
5.77
1.00
-1.93
-2.39
-0.51
2.93
6.78
9.89
11.46
11.25
9.58
7.12
4.59
2.53
1.17
0.42
0.02
-0.34
-0.85
-1.61
-2.54
-3.45
-4.10
-4.26
-3.74
-2.51
-0.68
1.49
3.66
5.50
6.83
7.58
7.83
7.75
7.51
7.25
7.05
6.91
6.77
6.51
6.04
5.31
4.34
3.20
1.99
0.80
-0.31
-1.34
-2.25
-3.05
-3.72
-4.31
-4.93
-5.69
-6.69
-7.95
-9.35
-10.69
-11.76
-12.47
-12.75
-12.61
-12.00
-10.84
-9.09
-6.82
-4.28
-1.88
-0.02
1.04
1.31
1.09
0.74
0.59
0.76
1.19
1.72
2.19
2.52
2.69
2.75
2.72
2.67
2.65
2.72
2.95
3.35
3.89
4.42
4.79
4.86
4.58
3.98
3.14
2.17
1.10
-0.02
-1.16
-2.17
-2.83
-2.81
-1.79
0.38
3.70
7.93
12.65
17.31
21.38
24.30
25.66
25.25
23.11
19.58
15.24
10.78
6.84
3.87
2.04
1.31
1.42
2.03
2.82
3.53
4.00
4.14
3.89
3.21
2.08
0.55
-1.27
-3.17
-4.96
-6.53
-7.89
-9.12
-10.25
-11.20
-11.78
-11.76
-11.02
-9.61
-7.77
-5.79
-3.89
-2.19
-0.70
0.57
1.57
2.21
2.34
1.95
1.16
0.24
-0.49
-0.78
-0.55
0.04
0.69
1.07
1.00
0.46
-0.38
-1.27
-1.99
-2.47
-2.71
-2.82
-2.92
-3.10
-3.43
-3.92
-4.59
-5.30
-5.86
-6.03
-5.61
-4.55
-3.01
-1.30
0.26
1.48
2.36
3.02
3.59
4.08
4.39
4.43
4.18
3.79
3.44
3.30
3.35
3.43
3.35
2.97
2.25
1.31
0.31
-0.63
-1.39
-1.89
-2.15
-2.24
-2.28
-2.47
-2.95
-3.75
-4.72
-5.57
-5.99
-5.77
-4.94
-3.70
-2.37
-1.17
-0.18
0.68
1.56
2.47
3.30
3.83
3.88
3.41
2.57
1.61
0.73
0.07
-0.42
-0.79
-1.10
-1.36
-1.55
-1.67
-1.74
-1.84
-2.02
-2.32
-2.73
-3.17
-3.62
-4.04
-4.45
-4.85
-5.23
-5.53
-5.64
-5.42
-4.81
-3.80
-2.48
-1.02
0.39
1.57
2.39
2.77
2.74
2.41
1.91
1.41
1.01
0.75
0.57
0.45
0.37
0.31
0.28
0.23
0.07
-0.26
-0.78
-1.42
-2.10
-2.71
-3.23
-3.72
-4.30
-5.10
-6.17
-7.40
-8.51
-9.19
-9.16
-8.35
-6.86
-4.99
-3.07
-1.36
-0.02
0.93
1.51
1.79
1.83
1.66
1.33
0.89
0.42
0.00
-0.24
-0.25
-0.01
0.34
0.64
0.76
0.65
0.36
-0.01
-0.41
-0.88
-1.51
-2.39
-3.50
-4.71
-5.84
-6.72
-7.25
-7.42
-7.27
-6.85
-6.20
-5.32
-4.21
-2.90
-1.48
-0.05
1.22
2.13
2.55
2.41
1.75
0.70
-0.53
-1.70
-2.61
-3.10
-3.20
-3.04
-2.85
-2.85
-3.11
-3.63
-4.31
-5.11
-6.05
-7.26
-8.79
-10.63
-12.67
-14.71
-16.62
-18.36
-20.00
-21.57
-23.01
-24.14
-24.81
-24.97
-24.81
-24.68
-24.98
-26.00
-27.85
-30.51
-33.85
-37.75
-42.03
-46.49
-50.88
-54.93
-58.48
-61.54
-64.21
-66.61
-68.74
-70.32
-70.81
-69.49
-65.73
-59.11
-49.59
-37.52
-23.57
-8.61
6.48
20.89
34.00
45.41
54.85
62.23
67.58
71.03
72.81
73.19
72.47
70.92
68.78
66.20
63.30
60.16
56.87
53.56
50.35
47.33
44.52
41.90
39.42
37.04
34.72
32.51
30.42
28.40
26.35
24.15
21.75
19.22
16.67
14.23
11.88
9.53
7.07
4.48
1.94
-0.25
-1.76
-2.37
-2.02
-0.81
1.10
3.51
6.22
8.94
11.34
13.09
13.96
13.89
13.02
11.59
9.88
8.08
6.29
4.55
2.88
1.34
-0.02
-1.12
-1.97
-2.66
-3.28
-3.94
-4.65
-5.40
-6.11
-6.72
-7.20
-7.57
-7.82
-7.96
-7.93
-7.59
-6.80
-5.45
-3.55
-1.23
1.28
3.69
5.76
7.37
8.47
9.10
9.30
9.11
8.57
7.76
6.82
5.88
5.11
4.53
4.10
3.66
3.11
2.39
1.55
0.71
0.01
-0.54
-0.99
-1.52
-2.35
-3.61
-5.29
-7.10
-8.59
-9.26
-8.78
-7.15
-4.69
-1.96
0.49
2.31
3.41
3.92
4.07
4.09
4.09
4.14
4.26
4.44
4.56
4.48
4.08
3.31
2.29
1.28
0.50
0.09
-0.00
0.05
0.04
-0.14
-0.51
-1.00
-1.51
-1.99
-2.37
-2.60
-2.57
-2.13
-1.14
0.46
2.57
4.99
7.41
9.49
10.99
11.82
12.01
11.68
10.98
10.01
8.82
7.51
6.19
4.99
4.03
3.35
2.90
2.56
2.21
1.76
1.15
0.37
-0.61
-1.80
-3.19
-4.78
-6.55
-8.47
-10.48
-12.43
-14.05
-15.01
-15.01
-13.92
-11.84
-9.12
-6.23
-3.60
-1.57
-0.30
0.19
-0.05
-0.92
-2.29
-3.94
-5.64
-7.12
-8.18
-8.76
-8.98
-9.07
-9.35
-10.05
-11.23
-12.80
-14.58
-16.37
-18.09
-19.72
-21.36
-23.12
-25.06
-27.12
-29.12
-30.66
-31.16
-29.75
-25.49
-17.59
-5.72
9.63
27.10
44.69
60.20
71.95
79.06
81.68
80.71
77.54
73.75
70.90
70.38
73.03
78.79
86.36
93.42
97.24
95.65
88.02
75.47
60.47
45.86
33.88
25.65
21.24
20.05
21.43
24.86
29.93
36.12
42.66
48.67
53.42
56.76
59.26
62.00
66.06
71.94
79.15
86.31
91.59
93.46
91.28
85.43
77.11
67.74
58.65
50.85
45.07
41.59
40.01
39.05
36.63
30.45
18.91
1.90
-18.99
-40.98
-61.18
-77.57
-89.49
-97.37
-102.11
-104.44
-104.74
-103.15
-99.91
-95.59
-90.96
-86.72
-83.11
-79.65
-75.38
-69.10
-59.98
-47.94
-33.81
-19.01
-5.25
6.05
14.14
19.10
21.79
23.61
26.15
30.68
37.76
46.86
56.50
64.72
69.78
70.86
68.30
63.36
57.55
51.98
46.92
41.94
36.29
29.39
21.11
11.79
2.04
-7.36
-15.65
-22.20
-26.63
-29.09
-30.33
-31.65
-34.57
-40.30
-49.30
-61.03
-74.10
-86.58
-96.55
-102.47
-103.47
-99.46
-90.95
-78.97
-64.79
-49.62
-34.40
-19.54
-4.97
9.67
24.63
39.73
54.22
66.93
76.55
82.14
83.41
80.78
75.24
67.98
60.08
52.20
44.45
36.35
26.90
14.94
-0.30
-18.60
-38.49
-57.63
-73.77
-85.91
-95.07
-103.91
-115.66
-132.56
-154.77
-180.22
-205.52
-227.34
-243.49
-253.23
-256.93
-255.20
-248.24
-235.56
-215.98
-187.81
-149.15
-98.45
-35.44
37.84
116.53
193.40
260.54
311.58
343.50
357.18
356.44
346.24
330.91
313.29
294.85
276.35
258.38
241.40
225.50
210.19
194.53
177.61
159.05
139.19
118.95
99.51
81.85
66.58
53.78
43.19
34.29
26.57
19.66
13.31
7.41
1.84
-3.62
-9.33
-15.63
-22.75
-30.60
-38.77
-46.61
-53.36
-58.37
-61.22
-61.79
-60.23
-56.93
-52.37
-47.04
-41.34
-35.56
-29.83
-24.28
-18.98
-14.12
-9.89
-6.53
-4.24
-3.18
-3.47
-5.02
-7.52
-10.30
-12.59
-13.70
-13.41
-11.96
-10.06
-8.69
-8.96
-11.89
-18.32
-28.72
-42.90
-59.88
-77.94
-95.06
-109.39
-119.97
-126.86
-130.93
-133.17
-134.19
-133.91
-131.92
-128.10
-123.04
-118.07
-114.64
-113.60
-114.62
-116.47
-117.66
-117.52
-116.65
-116.73
-119.58
-126.25
-136.41
-148.51
-160.47
-170.52
-177.70
-182.05
-184.34
-185.66
-186.96
-188.78
-191.22
-194.19
-197.66
-201.72
-206.35
-211.10
-214.96
-216.56
-214.77
-209.17
-200.27
-189.08
-176.36
-162.08
-145.44
-125.48
-101.93
-75.70
-48.69
-23.11
-0.59
18.23
33.57
46.01
55.98
63.54
68.62
71.53
73.13
74.79
77.86
83.12
90.55
99.45
108.91
118.27
127.34
136.26
145.28
154.40
163.25
171.03
176.77
179.48
178.43
173.47
165.15
154.76
144.02
134.54
127.34
122.54
119.35
116.59
113.15
108.48
102.70
96.40
90.36
85.19
81.23
78.48
76.69
75.41
74.10
72.32
69.89
66.96
64.02
61.57
59.72
57.93
55.14
50.17
42.41
32.29
21.25
11.22
3.79
-0.39
-1.85
-1.84
-1.75
-2.49
-4.43
-7.59
-12.02
-17.95
-25.62
-34.91
-45.01
-54.61
-62.33
-67.34
-69.59
-69.48
-67.33
-62.97
-55.96
-46.46
-36.20
-28.62
-27.83
-36.52
-53.95
-75.40
-93.47
-101.02
-94.08
-73.37
-43.73
-11.88
16.00
35.79
45.49
44.42
32.54
10.55
-19.46
-53.62
-86.79
-114.19
-133.22
-144.44
-150.95
-156.51
-163.47
-171.55
-178.23
-180.37
-176.06
-165.68
-151.71
-137.64
-126.39
-119.46
-116.70
-116.94
-118.74
-120.99
-123.05
-124.56
-125.14
-124.23
-121.09
-115.18
-106.48
-95.68
-84.11
-73.20
-64.02
-56.86
-51.25
-46.23
-40.81
-34.18
-25.88
-15.85
-4.56
6.78
16.35
22.07
22.49
17.54
8.90
-0.44
-7.32
-9.54
-6.58
0.56
10.10
20.35
30.27
39.45
47.67
54.66
59.99
63.26
64.39
63.77
62.28
60.98
60.95
62.84
66.80
72.30
78.34
83.78
87.77
90.10
91.34
92.46
94.43
97.73
102.17
107.06
111.65
115.40
118.19
120.09
121.23
121.58
121.06
119.64
117.45
114.64
111.18
106.79
100.95
93.21
83.40
71.69
58.57
44.51
29.95
15.29
1.04
-12.12
-23.55
-32.90
-40.37
-46.66
-52.68
-59.07
-65.85
-72.25
-76.80
-77.59
-72.76
-61.08
-42.45
-18.40
8.23
33.92
55.67
72.12
83.89
93.24
102.86
114.65
128.97
144.71
160.01
173.05
182.66
188.40
190.33
188.76
184.13
177.02
168.11
158.06
147.21
135.30
121.50
104.67
83.87
58.80
30.07
-0.99
-32.59
-62.96
-90.65
-114.79
-135.02
-151.41
-164.26
-173.91
-180.60
-184.38
-185.15
-182.87
-177.58
-169.63
-159.55
-147.95
-135.42
-122.45
-109.52
-97.13
-85.73
-75.70
-67.21
-60.11
-54.02
-48.37
-42.57
-36.21
-29.16
-21.56
-13.81
-6.44
0.06
5.33
9.19
11.60
12.55
12.09
10.34
7.55
4.17
0.83
-1.82
-3.30
-3.42
-2.36
-0.47
1.89
4.60
7.76
11.52
15.84
20.22
23.79
25.53
24.76
21.48
16.40
10.81
6.09
3.46
3.73
7.33
14.24
23.91
35.16
46.40
56.12
63.51
68.82
73.02
77.06
80.98
83.72
83.56
79.20
70.62
59.32
47.70
38.04
31.69
28.83
28.78
30.66
33.86
38.03
42.88
47.84
51.96
54.19
53.78
50.72
45.81
40.36
35.62
32.22
29.95
27.95
25.26
21.17
15.55
8.73
1.31
-6.05
-12.71
-18.09
-21.85
-23.90
-24.54
-24.37
-24.08
-24.33
-25.56
-27.95
-31.34
-35.25
-38.75
-40.72
-40.12
-36.49
-30.22
-22.38
-14.41
-7.46
-2.14
1.54
3.81
4.88
4.79
3.55
1.38
-1.21
-3.59
-5.27
-6.14
-6.51
-6.88
-7.68
-9.08
-11.00
-13.25
-15.60
-17.94
-20.24
-22.55
-24.87
-27.20
-29.42
-31.29
-32.38
-32.16
-30.16
-26.15
-20.20
-12.74
-4.50
3.70
11.06
16.98
21.10
23.38
24.04
23.59
22.61
21.68
21.28
21.64
22.80
24.58
26.68
28.74
30.47
31.67
32.28
32.38
32.05
31.32
30.13
28.28
25.56
21.90
17.48
12.83
8.85
6.49
6.56
9.37
14.64
21.45
28.64
35.05
39.92
42.92
44.09
43.70
42.10
39.68
36.94
34.43
32.62
31.76
31.74
32.13
32.34
31.86
30.43
28.07
25.02
21.59
17.93
14.08
9.93
5.35
0.36
-4.83
-9.77
-13.80
-16.22
-16.52
-14.46
-10.26
-4.49
1.99
8.27
13.51
17.11
18.74
18.44
16.60
13.88
11.07
8.86
7.64
7.37
7.69
8.06
8.09
7.74
7.44
7.87
9.76
13.45
18.68
24.41
29.07
31.04
29.40
24.46
17.94
12.47
10.84
15.13
26.29
44.03
66.95
92.84
118.88
141.99
159.32
168.79
169.51
161.87
147.03
126.40
101.15
72.28
40.97
8.90
-21.68
-48.54
-70.05
-85.67
-95.92
-102.03
-105.26
-106.52
-106.23
-104.47
-101.27
-96.79
-91.35
-85.33
-78.96
-72.19
-64.76
-56.35
-46.91
-36.84
-26.97
-18.32
-11.67
-7.32
-4.97
-3.92
-3.44
-3.00
-2.39
-1.65
-0.80
0.23
1.55
3.16
4.77
5.82
5.70
3.92
0.31
-5.01
-11.74
-19.50
-27.89
-36.34
-44.11
-50.33
-54.23
-55.43
-54.18
-51.27
-47.76
-44.57
-42.22
-40.78
-40.02
-39.65
-39.44
-39.26
-38.96
-38.38
-37.36
-35.78
-33.75
-31.51
-29.40
-27.69
-26.53
-25.91
-25.70
-25.74
-25.93
-26.26
-26.87
-27.96
-29.68
-31.90
-34.11
-35.45
-34.95
-31.91
-26.19
-18.35
-9.44
-0.66
6.97
12.86
16.80
18.87
19.25
18.22
16.18
13.72
11.53
10.21
10.08
11.02
12.54
13.98
14.78
14.72
13.90
12.64
11.20
9.59
7.53
4.60
0.57
-4.44
-9.74
-14.28
-16.94
-16.88
-13.86
-8.36
-1.37
5.86
12.23
16.94
19.60
20.18
18.92
16.30
12.96
9.57
6.72
4.71
3.52
2.94
2.72
2.78
3.18
4.02
5.20
6.31
6.74
5.94
3.60
-0.14
-4.88
-9.98
-14.77
-18.55
-20.58
-20.27
-17.30
-11.81
-4.52
3.46
10.87
16.65
20.14
21.09
19.64
16.25
11.63
6.63
2.14
-1.15
-2.94
-3.37
-2.88
-2.02
-1.20
-0.66
-0.48
-0.71
-1.43
-2.76
-4.80
-7.58
-11.08
-15.20
-19.67
-23.97
-27.34
-28.94
-28.05
-24.44
-18.45
-10.93
-2.92
4.60
10.94
15.77
18.95
20.52
20.59
19.44
17.50
15.34
13.52
12.44
12.19
12.54
13.05
13.23
12.75
11.54
9.82
7.95
6.30
4.98
3.85
2.49
0.41
-2.82
-7.25
-12.48
-17.64
-21.58
-23.17
-21.68
-17.06
-9.89
-1.22
7.82
16.32
23.70
29.62
33.79
35.88
35.58
32.83
28.00
21.86
15.44
9.75
5.56
3.29
3.03
4.55
7.40
10.94
14.41
17.09
18.44
18.24
16.61
13.87
10.36
6.29
1.70
-3.35
-8.59
-13.36
-16.70
-17.66
-15.71
-10.97
-4.29
3.02
9.69
14.87
18.27
20.10
20.81
20.81
20.37
19.64
18.71
17.73
16.79
15.96
15.23
14.50
13.60
12.48
11.11
9.58
8.00
6.46
4.97
3.43
1.60
-0.80
-3.99
-7.96
-12.34
-16.46
-19.39
-20.28
-18.66
-14.67
-9.05
-2.91
2.57
6.48
8.33
8.08
6.05
2.78
-1.10
-4.87
-7.91
-9.73
-10.15
-9.32
-7.68
-5.83
-4.39
-3.75
-4.03
-5.09
-6.58
-8.20
-9.77
-11.40
-13.42
-16.22
-20.06
-24.83
-29.99
-34.64
-37.76
-38.40
-36.04
-30.70
-22.97
-13.87
-4.50
4.09
11.24
16.61
20.19
22.17
22.80
22.40
21.34
20.03
18.80
17.88
17.27
16.79
16.20
15.30
14.06
12.63
11.26
10.15
9.40
8.83
8.09
6.74
4.39
0.86
-3.65
-8.56
-12.93
-15.70
-15.95
-13.28
-7.92
-0.75
6.98
13.99
19.39
22.79
24.30
24.26
23.08
21.03
18.32
15.20
12.03
9.22
7.13
5.87
5.25
4.86
4.28
3.27
1.83
0.17
-1.47
-2.96
-4.38
-5.99
-8.08
-10.86
-14.38
-18.42
-22.61
-26.47
-29.46
-31.07
-30.89
-28.71
-24.55
-18.81
-12.08
-5.14
1.27
6.63
10.69
13.49
15.22
16.14
16.47
16.43
16.21
16.02
16.01
16.21
16.50
16.58
16.11
14.84
12.76
10.16
7.50
5.26
3.64
2.56
1.64
0.42
-1.45
-3.99
-6.91
-9.67
-11.69
-12.43
-11.64
-9.30
-5.71
-1.32
3.31
7.72
11.58
14.77
17.26
19.03
20.04
20.26
19.74
18.60
17.09
15.45
13.86
12.37
10.92
9.41
7.70
5.79
3.69
1.55
-0.43
-2.04
-3.17
-3.87
-4.32
-4.86
-5.80
-7.37
-9.63
-12.50
-15.77
-19.07
-21.94
-23.83
-24.19
-22.62
-19.01
-13.55
-6.80
0.47
7.41
13.25
17.40
19.56
19.75
18.21
15.40
11.89
8.23
4.97
2.54
1.20
1.01
1.75
2.91
3.87
4.02
3.00
0.85
-2.09
-5.26
-8.15
-10.47
-12.21
-13.59
-14.93
-16.49
-18.38
-20.51
-22.60
-24.22
-24.91
-24.29
-22.15
-18.55
-13.84
-8.58
-3.36
1.28
5.03
7.77
9.61
10.74
11.40
11.79
12.02
12.10
12.00
11.64
10.95
9.94
8.63
7.14
5.57
4.04
2.63
1.40
0.32
-0.70
-1.85
-3.32
-5.34
-7.99
-11.20
-14.64
-17.75
-19.86
-20.33
-18.81
-15.38
-10.58
-5.25
-0.22
3.93
7.03
9.15
10.49
11.15
11.15
10.49
9.33
8.07
7.13
6.84
7.21
7.89
8.39
8.27
7.33
5.70
3.69
1.63
-0.27
-2.01
-3.72
-5.63
-7.97
-10.88
-14.35
-18.16
-21.85
-24.81
-26.40
-26.14
-23.92
-20.08
-15.27
-10.31
-5.92
-2.54
-0.31
0.85
1.18
0.92
0.29
-0.53
-1.35
-1.99
-2.32
-2.27
-1.93
-1.50
-1.23
-1.33
-1.89
-2.86
-4.12
-5.56
-7.13
-8.85
-10.79
-12.98
-15.37
-17.86
-20.31
-22.50
-24.16
-25.00
-24.81
-23.47
-21.03
-17.68
-13.70
-9.44
-5.25
-1.52
1.39
3.20
3.81
3.36
2.28
1.08
0.30
0.27
1.07
2.56
4.46
6.48
8.33
9.75
10.51
10.44
9.48
7.67
5.21
2.38
-0.55
-3.27
-5.49
-6.92
-7.19
-6.05
-3.42
0.49
5.13
9.79
13.77
16.55
17.92
17.94
16.89
15.07
12.88
10.68
8.83
7.63
7.19
7.44
8.08
8.73
9.03
8.80
8.03
6.89
5.60
4.30
2.96
1.42
-0.54
-2.99
-5.72
-8.24
-9.87
-9.97
-8.26
-4.89
-0.43
4.36
8.81
12.44
15.10
16.77
17.55
17.56
16.93
15.88
14.70
13.71
13.13
13.00
13.13
13.20
12.90
12.08
10.84
9.44
8.17
7.20
6.49
5.82
4.87
3.38
1.22
-1.53
-4.55
-7.34
-9.27
-9.76
-8.46
-5.39
-1.03
3.86
8.43
12.02
14.31
15.30
15.21
14.34
12.95
11.22
9.32
7.46
5.86
4.74
4.20
4.17
4.44
4.65
4.46
3.70
2.34
0.54
-1.46
-3.48
-5.47
-7.50
-9.68
-12.06
-14.46
-16.55
-17.90
-18.10
-16.98
-14.64
-11.42
-7.81
-4.33
-1.44
0.50
1.29
0.83
-0.74
-3.15
-5.91
-8.54
-10.61
-11.92
-12.51
-12.62
-12.54
-12.47
-12.48
-12.50
-12.45
-12.31
-12.20
-12.38
-13.06
-14.36
-16.17
-18.16
-19.87
-20.83
-20.67
-19.16
-16.22
-11.96
-6.70
-0.97
4.54
9.11
12.21
13.62
13.49
12.27
10.55
8.85
7.49
6.61
6.15
6.00
5.98
5.96
5.80
5.37
4.53
3.20
1.36
-0.92
-3.52
-6.31
-9.22
-12.16
-14.99
-17.43
-19.03
-19.34
-18.05
-15.15
-11.01
-6.22
-1.41
2.95
6.58
9.35
11.24
12.16
12.09
11.11
9.49
7.70
6.33
5.82
6.36
7.76
9.51
11.01
11.72
11.36
9.92
7.58
4.60
1.22
-2.38
-5.97
-9.23
-11.73
-13.02
-12.74
-10.79
-7.33
-2.85
2.04
6.69
10.60
13.48
15.27
16.11
16.23
15.83
15.11
14.20
13.19
12.20
11.32
10.62
10.08
9.55
8.84
7.78
6.27
4.40
2.32
0.20
-1.95
-4.22
-6.75
-9.49
-12.13
-14.10
-14.76
-13.73
-11.04
-7.21
-2.95
1.05
4.39
6.92
8.68
9.72
10.08
9.81
9.02
7.95
6.82
5.77
4.82
3.95
3.12
2.35
1.69
1.13
0.59
-0.10
-1.04
-2.24
-3.60
-5.05
-6.60
-8.30
-10.11
-11.83
-13.04
-13.26
-12.13
-9.63
-6.15
-2.28
1.33
4.26
6.28
7.39
7.69
7.32
6.53
5.59
4.79
4.35
4.30
4.51
4.75
4.77
4.44
3.77
2.87
1.88
0.89
-0.09
-1.13
-2.36
-3.88
-5.73
-7.85
-9.97
-11.66
-12.42
-11.87
-9.83
-6.50
-2.39
1.81
5.40
7.87
9.03
9.02
8.18
6.93
5.62
4.46
3.51
2.79
2.25
1.83
1.38
0.70
-0.49
-2.35
-4.88
-7.83
-10.84
-13.52
-15.65
-17.22
-18.34
-19.08
-19.32
-18.77
-17.07
-13.99
-9.59
-4.28
1.24
6.26
10.15
12.51
13.22
12.42
10.43
7.73
4.89
2.43
0.76
0.06
0.26
1.07
2.09
2.89
3.12
2.59
1.28
-0.71
-3.19
-5.96
-8.86
-11.69
-14.20
-16.05
-16.82
-16.16
-13.96
-10.45
-6.19
-1.90
1.76
4.40
5.93
6.48
6.21
5.32
3.95
2.34
0.80
-0.31
-0.79
-0.62
-0.04
0.58
0.92
0.80
0.27
-0.54
-1.47
-2.47
-3.57
-4.87
-6.46
-8.32
-10.31
-12.16
-13.52
-14.05
-13.51
-11.81
-9.04
-5.48
-1.52
2.39
5.86
8.58
10.40
11.29
11.34
10.73
9.69
8.46
7.29
6.36
5.72
5.27
4.83
4.20
3.26
1.98
0.46
-1.19
-2.88
-4.57
-6.24
-7.88
-9.52
-11.23
-13.12
-15.25
-17.59
-19.87
-21.62
-22.34
-21.57
-19.19
-15.40
-10.72
-5.81
-1.38
2.10
4.36
5.47
5.67
5.41
5.16
5.36
6.33
8.11
10.52
13.11
15.38
16.87
17.33
16.69
15.12
12.89
10.32
7.70
5.24
3.01
1.00
-0.92
-2.85
-4.89
-7.04
-9.20
-11.31
-13.35
-15.41
-17.61
-19.98
-22.40
-24.50
-25.79
-25.82
-24.31
-21.30
-17.14
-12.37
-7.54
-3.07
0.76
3.83
6.07
7.56
8.42
8.87
9.19
9.57
10.05
10.54
10.87
10.92
10.63
10.09
9.36
8.50
7.51
6.36
5.09
3.84
2.77
2.02
1.56
1.22
0.84
0.24
-0.62
-1.73
-3.11
-4.78
-6.82
-9.17
-11.64
-13.86
-15.34
-15.70
-14.75
-12.54
-9.34
-5.46
-1.21
3.12
7.27
10.98
14.01
16.17
17.39
17.76
17.55
17.05
16.53
16.11
15.75
15.31
14.67
13.79
12.79
11.90
11.33
11.16
11.25
11.34
11.10
10.29
8.87
6.96
4.80
2.64
0.64
-1.13
-2.70
-4.18
-5.68
-7.41
-9.46
-11.78
-14.08
-15.87
-16.61
-15.94
-13.82
-10.56
-6.75
-3.01
0.14
2.48
3.94
4.64
4.74
4.48
4.16
4.12
4.70
6.13
8.37
11.11
13.87
16.09
17.40
17.67
17.09
16.02
14.86
13.81
12.84
11.74
10.26
8.36
6.20
4.14
2.51
1.42
0.62
-0.37
-2.03
-4.62
-8.03
-11.79
-15.28
-17.87
-19.08
-18.73
-16.88
-13.83
-10.08
-6.22
-2.79
-0.21
1.34
1.89
1.63
0.82
-0.28
-1.49
-2.66
-3.64
-4.33
-4.60
-4.37
-3.68
-2.64
-1.49
-0.47
0.24
0.59
0.69
0.67
0.63
0.55
0.34
-0.15
-0.95
-2.06
-3.38
-4.85
-6.43
-8.10
-9.70
-10.98
-11.55
-11.09
-9.44
-6.76
-3.42
0.06
3.24
5.84
7.72
8.78
8.95
8.21
6.64
4.56
2.45
0.82
0.03
0.09
0.75
1.58
2.14
2.23
1.81
1.00
0.02
-1.00
-1.98
-2.93
-3.97
-5.26
-6.93
-8.99
-11.28
-13.42
-14.99
-15.59
-15.01
-13.26
-10.54
-7.16
-3.46
0.24
3.68
6.62
8.87
10.22
10.55
9.89
8.47
6.71
5.13
4.16
3.98
4.48
5.31
6.02
6.32
6.13
5.57
4.82
3.99
3.08
1.97
0.57
-1.16
-3.15
-5.27
-7.40
-9.36
-10.98
-12.03
-12.28
-11.57
-9.91
-7.50
-4.63
-1.64
1.23
3.81
6.01
7.77
8.98
9.55
9.45
8.79
7.80
6.81
6.08
5.78
5.85
6.09
6.23
6.10
5.62
4.87
3.99
3.06
2.09
0.99
-0.38
-2.13
-4.29
-6.75
-9.28
-11.51
-13.02
-13.42
-12.48
-10.24
-6.97
-3.16
0.63
3.92
6.37
7.86
8.48
8.44
8.03
7.51
7.03
6.65
6.29
5.81
5.15
4.32
3.45
2.68
2.10
1.65
1.22
0.64
-0.17
-1.19
-2.36
-3.61
-4.95
-6.36
-7.75
-8.89
-9.47
-9.21
-8.01
-6.03
-3.64
-1.29
0.71
2.23
3.37
4.34
5.28
6.27
7.26
8.15
8.86
9.31
9.49
9.44
9.22
8.98
8.84
8.89
9.12
9.42
9.61
9.58
9.29
8.80
8.25
7.73
7.32
7.00
6.62
6.00
4.94
3.34
1.25
-1.10
-3.36
-5.21
-6.45
-7.09
-7.31
-7.28
-7.08
-6.69
-6.04
-5.15
-4.17
-3.29
-2.64
-2.14
-1.59
-0.77
0.34
1.58
2.62
3.17
3.08
2.41
1.33
0.05
-1.28
-2.53
-3.57
-4.21
-4.30
-3.83
-2.98
-2.06
-1.41
-1.21
-1.44
-1.84
-2.12
-1.98
-1.27
0.02
1.79
3.90
6.23
8.67
11.09
13.35
15.29
16.75
17.58
17.66
16.94
15.48
13.48
11.22
9.01
7.09
5.52
4.24
3.12
2.07
1.08
0.20
-0.54
-1.18
-1.85
-2.67
-3.74
-5.13
-6.87
-8.96
-11.25
-13.48
-15.18
-15.84
-15.10
-12.91
-9.63
-5.90
-2.38
0.48
2.55
3.91
4.75
5.16
5.18
4.85
4.32
3.85
3.73
4.12
4.97
6.07
7.10
7.78
8.00
7.73
7.06
6.05
4.76
3.26
1.62
-0.08
-1.82
-3.57
-5.43
-7.49
-9.74
-12.03
-14.05
-15.42
-15.76
-14.86
-12.79
-9.87
-6.57
-3.35
-0.55
1.65
3.25
4.29
4.80
4.82
4.41
3.68
2.83
2.09
1.64
1.53
1.63
1.76
1.65
1.15
0.20
-1.12
-2.65
-4.22
-5.68
-7.02
-8.29
-9.68
-11.34
-13.34
-15.61
-17.85
-19.67
-20.56
-20.19
-18.37
-15.20
-11.04
-6.43
-1.92
2.02
5.12
7.37
8.90
9.94
10.66
11.16
11.48
11.60
11.53
11.29
10.98
10.66
10.36
10.03
9.61
9.00
8.14
7.08
5.88
4.60
3.31
2.04
0.78
-0.50
-1.86
-3.35
-5.00
-6.75
-8.42
-9.72
-10.24
-9.69
-7.93
-5.05
-1.40
2.61
6.54
10.03
12.83
14.77
15.73
15.71
14.92
13.66
12.39
11.47
11.05
11.02
11.10
10.94
10.34
9.27
7.86
6.28
4.66
3.08
1.59
0.26
-0.84
-1.77
-2.72
-3.99
-5.86
-8.36
-11.20
-13.85
-15.70
-16.34
-15.68
-13.90
-11.33
-8.33
-5.20
-2.24
0.26
2.04
2.88
2.77
1.88
0.57
-0.79
-1.88
-2.57
-2.85
-2.84
-2.66
-2.42
-2.18
-1.97
-1.83
-1.84
-2.10
-2.71
-3.68
-4.96
-6.44
-7.98
-9.46
-10.80
-11.94
-12.79
-13.25
-13.15
-12.37
-10.84
-8.63
-5.93
-2.99
-0.10
2.46
4.47
5.78
6.31
6.13
5.47
4.70
4.18
4.24
4.95
6.18
7.58
8.78
9.47
9.53
8.98
7.93
6.57
5.00
3.33
1.59
-0.23
-2.19
-4.33
-6.65
-9.02
-11.15
-12.64
-13.09
-12.26
-10.12
-6.94
-3.16
0.77
4.39
7.39
9.53
10.66
10.76
9.97
8.60
7.07
5.82
5.08
4.85
4.91
4.93
4.66
4.01
3.09
2.04
0.99
-0.02
-1.06
-2.26
-3.79
-5.75
-8.17
-10.92
-13.71
-16.10
-17.67
-18.03
-17.04
-14.85
-11.78
-8.33
-4.96
-2.06
0.13
1.50
2.10
2.03
1.40
0.32
-1.15
-2.87
-4.62
-6.04
-6.76
-6.43
-4.95
-2.55
0.22
2.61
3.91
3.63
1.59
-1.95
-6.44
-11.12
-15.21
-18.10
-19.40
-19.06
-17.34
-14.66
-11.50
-8.29
-5.23
-2.38
0.30
2.84
5.17
7.12
8.53
9.34
9.63
9.59
9.43
9.33
9.37
9.54
9.79
10.05
10.27
10.41
10.42
10.27
9.89
9.18
8.08
6.54
4.60
2.38
0.06
-2.15
-4.02
-5.34
-5.87
-5.44
-3.96
-1.51
1.62
5.01
8.15
10.66
12.28
12.96
12.80
11.99
10.73
9.26
7.74
6.30
4.97
3.73
2.53
1.29
-0.03
-1.46
-2.99
-4.60
-6.24
-7.85
-9.42
-10.96
-12.53
-14.12
-15.63
-16.79
-17.22
-16.54
-14.59
-11.47
-7.58
-3.49
0.26
3.23
5.25
6.32
6.59
6.32
5.81
5.35
5.15
5.32
5.79
6.38
6.85
6.95
6.56
5.65
4.29
2.62
0.82
-0.98
-2.66
-4.16
-5.51
-6.75
-7.81
-8.52
-8.53
-7.50
-5.26
-1.92
2.13
6.32
10.11
13.11
15.12
16.09
16.04
15.08
13.43
11.45
9.59
8.30
7.82
8.05
8.60
8.98
8.80
7.93
6.56
5.02
3.65
2.59
1.75
0.88
-0.31
-1.99
-4.11
-6.39
-8.40
-9.67
-9.85
-8.78
-6.61
-3.67
-0.45
2.56
5.00
6.74
7.80
8.31
8.40
8.16
7.60
6.79
5.87
5.07
4.59
4.46
4.50
4.35
3.64
2.25
0.35
-1.66
-3.40
-4.71
-5.77
-6.96
-8.62
-10.78
-13.18
-15.41
-17.04
-17.82
-17.66
-16.55
-14.45
-11.37
-7.39
-2.83
1.73
5.69
8.54
10.12
10.65
10.62
10.58
10.90
11.70
12.78
13.77
14.26
13.98
12.87
11.05
8.81
6.42
4.10
2.02
0.26
-1.13
-2.10
-2.69
-3.00
-3.19
-3.45
-3.85
-4.39
-4.94
-5.34
-5.48
-5.38
-5.13
-4.90
-4.83
-5.00
-5.42
-6.04
-6.79
-7.62
-8.50
-9.40
-10.28
-11.03
-11.49
-11.43
-10.67
-9.14
-6.92
-4.30
-1.62
0.69
2.33
3.14
3.21
2.74
2.09
1.56
1.36
1.55
2.03
2.63
3.13
3.35
3.16
2.60
1.83
1.20
1.07
1.73
3.22
5.32
7.62
9.67
11.10
11.69
11.40
10.28
8.51
6.32
4.00
1.87
0.20
-0.85
-1.28
-1.23
-0.95
-0.70
-0.70
-1.00
-1.50
-1.99
-2.31
-2.44
-2.59
-3.09
-4.20
-5.89
-7.74
-9.13
-9.44
-8.34
-5.93
-2.61
1.08
4.78
8.29
11.55
14.48
16.86
18.40
18.85
18.19
16.63
14.61
12.60
10.94
9.74
8.96
8.40
7.84
7.10
6.11
4.87
3.46
2.00
0.57
-0.81
-2.21
-3.80
-5.76
-8.18
-10.99
-13.97
-16.72
-18.80
-19.77
-19.36
-17.48
-14.33
-10.34
-6.05
-2.02
1.31
3.69
5.10
5.66
5.61
5.20
4.69
4.27
4.04
4.01
4.04
3.93
3.45
2.39
0.65
-1.76
-4.76
-8.20
-11.88
-15.66
-19.45
-23.29
-27.26
-31.48
-35.90
-40.29
-44.16
-46.76
-47.33
-45.28
-40.43
-33.11
-24.16
-14.67
-5.72
1.93
7.93
12.31
15.32
17.19
18.08
18.08
17.34
16.11
14.76
13.62
12.91
12.66
12.79
13.14
13.64
14.32
15.23
16.36
17.63
18.82
19.64
19.88
19.37
18.07
16.02
13.38
10.45
7.63
5.42
4.26
4.39
5.82
8.27
11.32
14.53
17.54
20.16
22.32
24.04
25.35
26.27
26.82
27.03
26.94
26.64
26.19
25.66
25.03
24.25
23.19
21.71
19.68
17.03
13.79
10.06
5.97
1.68
-2.70
-7.05
-11.25
-15.11
-18.40
-20.86
-22.25
-22.46
-21.51
-19.61
-17.12
-14.53
-12.29
-10.76
-10.15
-10.51
-11.72
-13.57
-15.79
-18.05
-19.98
-21.16
-21.28
-20.22
-18.13
-15.44
-12.66
-10.31
-8.68
-7.86
-7.71
-8.05
-8.65
-9.31
-9.87
-10.21
-10.27
-10.01
-9.38
-8.26
-6.45
-3.71
0.13
5.10
11.02
17.48
24.00
30.09
35.33
39.48
42.40
44.09
44.62
44.15
42.86
40.97
38.63
35.96
33.04
