1574670629.00
64.000000
-0.00
-0.00
-0.00
-0.00
-0.00
-0.00
-0.00
-0.00
-0.00
-0.00
0.00
0.01
0.01
-0.00
-0.03
-0.05
-0.05
0.00
0.13
0.36
0.66
1.01
1.37
1.72
2.06
2.40
2.79
3.24
3.80
4.42
5.06
5.66
6.20
6.68
7.15
7.68
8.31
9.14
10.09
11.04
11.88
12.56
13.14
13.76
14.65
15.96
17.91
20.32
22.90
25.38
27.58
29.57
31.68
34.32
37.81
42.54
48.15
54.10
59.83
64.97
69.58
74.14
79.34
85.71
93.76
103.00
112.62
121.73
129.77
136.75
143.30
150.75
157.77
166.64
177.95
191.79
206.97
220.57
228.25
225.36
208.53
176.87
132.76
80.05
23.07
-34.94
-92.44
-149.16
-205.23
-260.37
-313.74
-363.87
-409.83
-450.91
-486.50
-515.74
-537.23
-549.22
-549.96
-538.37
-514.21
-478.67
-433.88
-382.45
-327.02
-269.84
-212.63
-156.66
-102.95
-52.37
-5.90
35.58
71.43
101.35
125.50
144.38
158.69
169.15
176.37
180.75
182.57
182.07
179.52
175.25
169.68
163.22
156.21
148.90
141.42
133.85
126.23
118.58
110.99
103.51
96.21
89.15
82.35
75.83
69.59
63.65
58.02
52.70
47.70
43.03
38.67
34.64
30.91
27.49
24.36
21.53
18.98
16.73
14.75
13.05
11.60
10.41
9.45
8.70
8.17
7.81
7.63
7.61
7.72
7.96
8.32
8.79
9.35
10.01
10.75
11.56
12.46
13.43
14.46
15.55
16.72
17.97
19.30
20.71
22.19
23.73
25.28
26.78
28.15
29.27
30.00
30.20
29.75
28.54
26.50
23.63
19.99
15.66
10.82
5.68
0.49
-4.52
-9.10
-13.07
-16.27
-18.62
-20.10
-20.70
-20.54
-19.71
-18.34
-16.56
-14.50
-12.25
-9.88
-7.45
-4.95
-2.45
0.05
2.52
5.01
7.51
10.04
12.63
15.32
18.15
21.07
24.03
27.03
30.02
33.00
35.94
38.83
41.70
44.68
47.62
50.51
53.33
56.11
58.82
61.46
64.09
66.76
69.67
72.62
75.56
78.47
81.35
84.14
86.77
89.16
91.32
93.42
95.11
96.22
96.59
95.92
93.73
89.32
81.78
69.98
56.50
42.60
29.30
17.36
7.16
-1.40
-8.75
-15.46
-21.92
-28.17
-34.45
-40.68
-46.82
-53.13
-60.27
-69.18
-80.74
-95.37
-112.81
-132.69
-154.17
-176.41
-198.92
-221.64
-245.01
-269.96
-297.89
-330.28
-368.20
-410.86
-454.91
-494.59
-523.04
-534.45
-526.02
-498.81
-457.14
-407.03
-354.11
-302.54
-254.74
-211.95
-174.70
-143.00
-116.22
-92.98
-71.50
-50.19
-28.32
-6.23
14.96
33.86
49.56
61.94
71.55
79.30
86.05
92.23
97.93
102.92
106.90
109.60
110.82
110.40
108.18
104.12
98.42
91.57
84.29
77.34
71.20
66.00
61.42
56.84
51.57
44.99
36.74
26.94
16.29
6.14
-1.76
-5.71
-4.80
0.79
9.73
19.97
29.52
37.06
42.15
45.16
46.78
47.71
48.43
49.29
50.55
52.50
55.28
58.81
62.67
66.26
68.88
70.06
69.61
67.72
64.84
61.62
58.78
57.08
57.18
59.47
63.88
69.73
75.88
81.04
84.09
84.45
82.07
77.38
70.91
63.15
54.38
44.89
35.32
26.94
21.88
22.73
31.82
50.30
77.53
110.96
146.88
181.40
211.57
235.85
254.12
267.11
275.80
281.08
283.61
284.00
282.82
280.51
277.21
272.51
265.46
254.78
239.26
218.24
192.08
162.37
131.74
103.21
79.35
61.57
49.81
42.82
38.84
36.24
33.83
30.80
26.51
20.29
11.66
0.68
-11.76
-24.15
-34.82
-42.61
-47.27
-49.46
-50.30
-50.81
-51.57
-52.56
-53.38
-53.58
-52.98
-51.77
-50.45
-49.60
-49.63
-50.61
-52.37
-54.65
-57.35
-60.54
-64.19
-68.07
-71.66
-74.48
-76.36
-77.58
-78.73
-80.32
-82.54
-85.08
-87.35
-88.78
-89.24
-89.14
-89.45
-91.44
-96.24
-104.43
-115.82
-129.39
-143.64
-157.25
-169.61
-181.02
-192.21
-203.62
-214.78
-224.21
-229.99
-230.59
-225.46
-215.19
-201.04
-184.46
-166.56
-148.03
-129.25
-110.63
-92.69
-76.17
-61.87
-50.39
-41.96
-36.27
-32.41
-29.06
-24.79
-18.53
-9.98
0.30
11.11
21.09
29.24
35.13
38.76
40.29
39.74
36.96
31.81
24.49
15.66
6.44
-1.80
-7.81
-10.71
-10.16
-6.40
-0.13
7.61
15.72
23.34
29.95
35.48
40.03
43.80
46.84
49.13
50.67
51.58
52.16
52.72
53.49
54.48
55.59
56.67
57.58
58.23
58.44
57.98
56.56
54.01
50.35
45.84
40.88
35.80
30.80
25.85
20.81
15.55
9.95
3.92
-2.59
-9.57
-16.67
-23.09
-27.58
-28.77
-25.73
-18.47
-8.13
3.39
14.06
22.43
28.01
31.15
32.69
33.35
33.59
33.54
33.22
32.78
32.50
32.72
33.65
35.25
37.27
39.30
40.93
41.84
41.85
40.94
39.19
36.79
33.95
30.87
27.68
24.42
20.94
17.01
12.29
6.44
-0.73
-9.05
-17.81
-25.78
-31.40
-33.25
-30.57
-23.70
-14.03
-3.55
5.85
13.10
18.13
21.66
24.53
27.18
29.44
30.83
31.06
30.47
29.95
30.49
32.59
35.78
38.83
40.21
38.97
35.21
30.16
25.65
23.35
24.06
27.37
31.89
35.79
37.35
35.45
29.81
21.09
10.95
2.10
-2.09
1.61
15.08
37.81
66.51
95.87
120.19
135.49
140.77
138.07
131.34
124.58
120.42
119.56
121.24
124.35
128.31
133.47
140.60
150.14
161.38
172.27
179.84
181.40
175.65
163.18
146.14
127.11
107.90
89.00
70.01
50.71
31.98
15.91
4.92
0.45
1.94
6.88
11.61
12.79
8.45
-1.51
-15.68
-31.79
-47.56
-61.04
-70.83
-76.13
-76.74
-73.17
-66.56
-58.41
-50.03
-42.10
-34.43
-26.21
-16.66
-5.56
6.49
18.22
28.25
35.43
39.07
38.75
34.13
24.84
10.76
-7.59
-28.84
-50.76
-70.57
-85.53
-93.65
-94.19
-87.93
-76.87
-63.55
-50.15
-37.86
-26.90
-16.95
-7.98
-0.63
3.85
4.32
0.52
-6.43
-14.37
-20.93
-24.56
-25.15
-23.83
-22.08
-20.65
-19.15
-16.34
-11.04
-3.09
6.45
15.78
23.22
27.89
29.78
29.37
27.06
22.95
17.09
9.96
2.68
-3.16
-6.22
-6.18
-4.11
-2.07
-2.11
-5.19
-10.72
-16.89
-21.92
-25.12
-27.53
-31.32
-38.60
-50.21
-65.32
-81.83
-97.57
-111.10
-122.02
-130.37
-135.98
-138.13
-135.83
-128.56
-116.96
-102.91
-89.04
-77.89
-71.21
-69.73
-73.22
-80.67
-90.49
-100.54
-108.45
-112.15
-110.60
-104.34
-95.35
-86.28
-79.37
-75.63
-74.66
-75.11
-75.41
-74.43
-71.78
-67.91
-63.94
-61.46
-62.03
-66.57
-74.79
-85.16
-95.52
-104.00
-109.93
-114.12
-118.42
-124.95
-135.46
-150.90
-171.22
-194.87
-218.58
-237.40
-245.68
-238.94
-215.90
-179.57
-136.66
-95.24
-61.72
-38.69
-24.56
-15.05
-5.67
6.29
21.14
37.38
52.96
66.32
76.66
83.64
87.01
86.59
82.57
75.83
67.96
60.80
55.76
53.30
52.87
53.24
52.94
50.72
45.69
37.47
26.29
13.16
-0.04
-10.75
-16.33
-14.92
-6.08
9.04
28.15
48.56
68.00
84.99
98.93
109.81
118.00
123.97
128.24
131.26
133.40
134.96
136.19
137.28
138.27
138.90
138.40
135.52
128.84
117.28
100.81
80.76
59.65
40.54
26.02
17.62
15.63
19.65
29.13
43.76
63.31
87.14
113.89
141.38
167.14
188.99
205.49
216.05
220.68
219.75
214.02
204.63
193.14
181.21
169.96
159.53
149.05
137.19
122.92
106.25
88.29
70.77
55.25
42.38
31.76
22.32
13.04
3.67
-5.11
-11.99
-15.72
-15.74
-12.56
-7.50
-2.22
1.90
4.16
4.74
4.49
4.61
6.25
10.12
16.38
24.42
32.89
39.95
43.63
42.50
36.13
25.18
11.03
-5.12
-23.00
-43.74
-69.70
-103.68
-147.41
-199.99
-256.84
-309.89
-349.18
-365.50
-353.29
-312.68
-249.69
-174.62
-99.02
-32.52
19.25
55.02
76.69
87.50
90.66
88.66
83.58
77.41
72.04
68.91
68.45
69.69
70.57
69.03
64.08
56.43
48.26
41.90
39.06
40.11
44.37
50.66
58.05
66.19
75.30
85.78
97.10
108.11
117.23
122.83
123.67
119.16
109.38
95.01
77.21
55.99
31.33
3.36
-27.46
-60.24
-93.73
-126.56
-157.22
-184.27
-209.13
-234.03
-261.37
-292.67
-327.84
-364.92
-400.51
-430.28
-449.60
-457.94
-456.61
-448.24
-435.73
-421.52
-407.39
-394.65
-383.86
-362.19
-323.06
-265.46
-194.86
-120.27
-49.53
13.69
69.65
118.54
167.36
219.42
275.13
331.90
385.12
429.57
461.27
476.06
470.41
446.92
410.56
368.22
325.60
285.36
247.63
213.45
182.76
156.80
138.00
125.99
118.57
112.94
108.02
104.41
104.12
110.88
126.80
151.80
181.93
210.77
232.20
242.28
240.13
228.18
210.72
191.62
173.79
157.63
139.75
117.95
90.13
55.91
17.14
-22.21
-59.55
-93.68
-125.39
-159.08
-199.65
-250.99
-314.57
-389.38
-471.08
-555.18
-634.59
-698.96
-739.30
-749.13
-728.02
-682.89
-626.11
-569.31
-522.55
-488.90
-447.59
-382.98
-289.70
-176.95
-63.84
19.78
70.14
92.08
92.24
75.64
46.23
7.08
-36.01
-73.90
-96.22
-93.77
-65.83
-18.13
40.42
98.95
149.11
186.95
212.79
230.45
246.02
263.15
283.91
309.56
339.01
369.72
397.83
418.40
426.82
420.07
396.57
358.21
310.86
261.65
216.44
177.60
138.23
92.52
37.81
-23.98
-86.68
-142.59
-186.62
-217.60
-237.46
-249.31
-254.88
-255.48
-250.91
-241.13
-226.46
-208.05
-187.50
-166.25
-145.22
-123.95
-101.52
-76.41
-49.50
-21.19
8.19
38.38
69.03
99.19
127.42
151.20
167.52
173.36
167.04
148.67
120.56
87.23
54.61
28.98
14.98
14.23
24.59
41.46
59.43
74.45
85.21
92.91
99.78
107.08
114.01
117.93
116.19
107.85
94.46
79.45
66.56
58.34
55.35
56.28
58.57
59.32
55.58
45.00
26.34
0.33
-29.66
-58.06
-78.53
-86.47
-81.07
-65.95
-47.68
-33.23
-27.36
-31.10
-42.09
-56.17
-69.05
-77.82
-81.32
-79.78
-74.00
-64.87
-53.37
-40.89
-29.59
-22.40
-22.42
-32.08
-51.92
-79.93
-111.63
-141.09
-162.58
-171.95
-167.47
-149.52
-119.87
-80.86
-35.18
13.53
60.35
99.44
125.49
135.79
131.30
116.61
98.38
82.95
74.01
71.40
71.58
69.60
61.91
48.87
35.35
28.62
34.53
53.68
79.78
101.51
107.15
89.95
51.31
0.23
-50.65
-90.21
-112.68
-118.22
-111.07
-96.43
-78.06
-57.62
-35.49
-12.32
9.85
28.03
39.59
43.76
42.42
39.48
38.95
42.98
50.92
59.86
66.12
66.93
61.51
51.02
37.86
24.59
13.08
4.04
-2.81
-8.28
-13.26
-18.23
-23.16
-27.38
-29.81
-29.27
-24.90
-16.61
-5.23
7.60
20.05
30.89
40.12
49.01
59.39
72.48
88.01
104.19
118.71
130.37
140.26
151.60
168.11
191.63
220.35
248.80
269.84
277.57
269.77
248.34
217.68
182.03
143.80
103.81
63.04
24.28
-7.93
-29.03
-36.90
-32.96
-21.09
-5.14
13.12
34.08
58.40
84.47
107.06
118.40
111.06
81.65
33.22
-24.73
-78.96
-116.69
-129.85
-117.42
-85.15
-43.05
-1.87
29.72
46.35
45.92
29.07
-1.24
-39.89
-79.90
-113.82
-135.88
-144.06
-140.84
-132.10
-124.49
-122.53
-126.89
-134.20
-138.66
-135.03
-121.51
-101.48
-82.90
-75.42
-86.28
-117.07
-162.68
-213.23
-257.61
-287.23
-298.24
-291.67
-271.96
-244.91
-215.95
-189.19
-167.17
-150.84
-139.89
-133.36
-130.27
-130.42
-134.26
-142.34
-154.01
-166.60
-175.52
-175.47
-162.68
-136.70
-101.04
-62.53
-28.91
-6.32
2.73
0.02
-9.50
-19.74
-26.12
-27.07
-24.35
-21.32
-20.44
-21.50
-21.49
-16.70
-5.42
10.62
26.97
39.23
46.06
50.42
58.22
75.03
103.01
139.59
178.80
214.32
242.32
262.83
278.65
293.22
308.35
322.98
333.60
335.38
324.09
297.72
257.70
209.26
160.22
119.07
91.94
80.60
82.12
90.45
99.15
104.00
103.93
100.25
94.99
89.37
83.31
76.02
66.99
56.50
45.71
36.23
29.35
25.45
23.63
21.77
17.19
7.57
-8.04
-28.72
-51.90
-74.22
-92.70
-105.62
-112.81
-115.29
-114.76
-112.86
-110.82
-109.23
-108.01
-106.50
-103.77
-98.92
-91.37
-81.17
-69.05
-56.17
-43.77
-32.68
-23.10
-14.80
-7.55
-1.25
4.12
8.77
13.21
17.90
22.73
26.68
28.20
26.11
20.65
13.68
8.04
6.16
9.12
16.52
27.03
39.25
52.03
64.22
74.31
80.44
80.91
75.10
64.05
50.41
37.63
28.71
25.14
26.47
30.59
34.75
36.82
36.13
33.45
30.07
26.43
21.41
12.91
-0.55
-17.97
-35.63
-48.59
-53.40
-50.40
-44.00
-40.62
-45.33
-59.42
-80.12
-102.67
-123.21
-140.62
-156.21
-171.31
-184.85
-192.68
-189.11
-170.17
-136.36
-93.17
-48.92
-11.32
15.33
30.98
38.74
43.01
47.72
55.40
66.87
81.12
95.34
105.35
106.98
97.87
79.11
55.26
32.61
16.49
9.19
9.43
13.69
18.26
20.79
20.70
18.43
14.54
9.18
2.12
-6.54
-15.78
-23.54
-27.47
-25.96
-19.16
-9.15
0.73
7.23
8.69
5.64
0.34
-4.57
-7.58
-8.93
-10.11
-12.57
-16.48
-20.45
-22.22
-19.94
-13.18
-2.97
8.85
20.55
31.06
39.99
47.22
52.53
55.73
56.88
56.62
56.03
56.09
56.95
57.71
56.64
52.05
43.23
30.98
17.48
5.40
-3.10
-7.27
-7.78
-6.05
-3.41
-0.48
2.74
6.32
9.80
12.08
11.97
8.93
3.64
-2.30
-7.17
-10.22
-12.14
-14.70
-19.76
-28.23
-39.50
-51.69
-62.35
-69.33
-71.46
-68.68
-62.01
-53.24
-44.51
-37.69
-33.86
-32.66
-32.35
-30.43
-24.79
-15.08
-3.10
7.66
13.53
12.32
4.34
-7.76
-20.20
-29.69
-34.61
-35.28
-33.32
-30.53
-28.13
-26.42
-25.07
-23.62
-21.90
-20.16
-18.93
-18.74
-19.81
-21.84
-24.03
-25.26
-24.53
-21.28
-15.69
-8.63
-1.33
5.03
9.82
13.04
15.22
16.93
18.43
19.50
19.59
18.23
15.41
11.73
8.31
6.30
6.37
8.36
11.28
13.75
14.53
13.15
10.11
6.64
4.11
3.43
4.58
6.61
8.04
7.43
3.80
-3.00
-12.27
-22.65
-32.32
-39.56
-43.13
-42.67
-38.84
-33.14
-27.43
-23.26
-21.31
-21.18
-21.57
-21.03
-18.51
-13.97
-8.24
-2.66
1.49
3.67
4.00
3.24
2.31
1.89
2.17
2.84
3.31
3.19
2.48
1.76
1.97
4.08
8.58
15.20
23.01
30.67
37.04
41.53
44.19
45.45
45.67
44.85
42.64
38.70
33.16
26.73
20.76
16.59
15.16
16.70
20.65
26.17
32.41
38.97
45.96
53.82
62.79
72.51
81.73
88.47
90.58
86.55
76.15
60.73
42.84
25.45
11.22
1.74
-2.47
-1.92
2.16
8.08
13.89
17.62
17.60
12.93
3.82
-8.41
-21.44
-32.72
-39.98
-41.95
-38.80
-31.74
-22.77
-13.77
-6.05
-0.08
4.22
7.08
8.63
8.85
7.79
5.86
3.65
1.90
1.02
0.96
1.41
1.92
2.28
2.54
2.86
3.32
3.74
3.72
2.96
1.43
-0.52
-2.34
-3.49
-3.80
-3.50
-3.13
-3.46
-5.02
-7.90
-11.65
-15.28
-17.69
-18.04
-16.14
-12.52
-8.14
-3.98
-0.60
1.89
3.81
5.49
6.99
8.20
8.89
9.06
9.01
9.08
9.49
10.04
10.20
9.47
7.67
5.21
2.83
1.38
1.24
2.26
3.77
4.88
4.99
3.96
2.10
0.01
-1.78
-3.06
-3.97
-4.96
-6.44
-8.67
-11.55
-14.72
-17.55
-19.38
-19.82
-18.73
-16.36
-13.21
-9.78
-6.46
-3.49
-1.02
0.79
1.86
2.21
2.14
2.12
2.67
3.97
5.77
7.50
8.42
8.23
7.08
5.54
4.24
3.52
3.24
2.95
2.24
0.95
-0.66
-2.09
-2.96
-3.12
-2.83
-2.63
-2.91
-3.91
-5.47
-7.23
-8.90
-10.39
-11.86
-13.55
-15.48
-17.29
-18.25
-17.68
-15.20
-11.12
-6.32
-1.86
1.35
3.04
3.54
3.53
3.74
4.48
5.60
6.59
6.96
6.51
5.48
4.35
3.62
3.53
3.97
4.56
4.86
4.66
3.97
3.05
2.16
1.44
0.90
0.46
0.07
-0.35
-0.85
-1.54
-2.46
-3.65
-5.10
-6.70
-8.45
-10.20
-11.81
-12.99
-13.33
-12.52
-10.50
-7.63
-4.61
-2.15
-0.64
0.01
0.20
0.45
0.97
1.63
2.12
2.15
1.74
1.23
1.02
1.35
2.08
2.72
2.72
1.83
0.25
-1.52
-2.87
-3.48
-3.42
-3.06
-2.94
-3.31
-4.15
-5.18
-6.02
-6.54
-6.89
-7.48
-8.62
-10.16
-11.48
-11.61
-9.92
-6.41
-1.91
2.20
4.84
5.67
5.54
6.03
8.72
14.40
22.62
31.86
40.03
45.43
47.23
45.68
41.88
37.11
32.32
27.73
22.81
16.76
8.93
-0.92
-12.57
-25.53
-39.07
-52.26
-63.95
-72.88
-78.15
-79.59
-78.18
-75.70
-74.19
-75.15
-78.80
-84.08
-89.00
-91.62
-90.80
-86.57
-79.89
-71.98
-63.61
-54.61
-44.08
-31.11
-15.49
1.71
18.51
33.02
44.37
53.36
62.08
72.76
86.70
103.55
121.60
138.58
152.57
162.43
167.60
167.58
161.65
149.24
130.78
108.25
85.12
65.19
51.05
42.77
37.83
32.12
21.81
4.91
-17.99
-44.20
-70.21
-92.86
-110.08
-120.95
-125.42
-123.87
-117.14
-106.51
-93.91
-81.88
-73.11
-69.92
-73.48
-83.21
-96.71
-110.20
-119.58
-121.71
-115.49
-102.08
-84.32
-65.66
-48.88
-35.55
-25.98
-19.74
-16.12
-14.44
-13.90
-13.49
-12.04
-8.58
-2.91
3.95
10.03
12.94
10.87
3.55
-7.61
-19.62
-29.05
-33.05
-30.31
-21.44
-8.69
4.94
16.75
25.18
30.01
32.12
32.65
32.50
32.04
31.24
30.16
29.20
29.09
30.51
33.60
37.76
41.78
44.33
44.65
42.81
39.70
36.47
34.09
32.83
32.21
31.48
29.88
27.26
24.05
20.98
18.69
17.31
16.42
15.30
13.35
10.44
6.92
3.48
0.66
-1.36
-2.80
-4.19
-5.93
-8.18
-10.74
-13.29
-15.56
-17.55
-19.40
-21.23
-22.90
-23.99
-24.00
-22.64
-19.97
-16.54
-13.08
-10.21
-8.29
-7.22
-6.71
-6.39
-6.00
-5.47
-4.90
-4.48
-4.34
-4.49
-4.76
-4.75
-4.06
-2.42
0.10
2.95
5.41
6.76
6.73
5.58
4.04
2.84
2.47
2.88
3.66
4.31
4.48
4.01
2.95
1.37
-0.65
-2.88
-4.98
-6.42
-6.70
-5.57
-3.15
0.06
3.38
6.19
8.15
9.27
9.78
10.01
10.12
10.13
9.93
9.30
8.17
6.51
4.43
2.04
-0.56
-3.34
-6.17
-8.87
-11.04
-12.17
-11.84
-9.92
-6.67
-2.73
1.03
3.92
5.45
5.65
4.86
3.54
2.08
0.59
-1.12
-3.30
-6.03
-8.93
-11.29
-12.20
-11.10
-8.05
-3.76
0.60
3.95
5.74
6.09
5.65
5.22
5.35
6.15
7.35
8.53
9.28
9.36
8.66
7.30
5.47
3.45
1.53
-0.11
-1.34
-2.16
-2.60
-2.68
-2.42
-1.89
-1.28
-0.89
-0.98
-1.75
-3.20
-5.25
-7.76
-10.53
-13.28
-15.58
-16.80
-16.40
-14.15
-10.36
-5.86
-1.68
1.42
3.27
4.29
5.20
6.65
8.91
11.76
14.62
16.86
17.86
17.31
15.17
11.79
7.84
4.26
2.07
1.98
4.16
7.98
12.17
15.16
15.69
13.32
8.65
3.01
-2.07
-5.47
-6.91
-6.93
-6.49
-6.52
-7.54
-9.56
-12.19
-14.92
-17.18
-18.57
-18.78
-17.60
-15.03
-11.27
-6.82
-2.39
1.32
3.81
4.96
5.08
4.77
4.70
5.38
7.00
9.38
12.11
14.63
16.49
17.44
17.47
16.77
15.65
14.45
13.39
12.50
11.60
10.46
8.86
6.76
4.29
1.71
-0.71
-2.77
-4.29
-5.12
-5.04
-3.80
-1.29
2.30
6.34
9.82
11.64
11.09
8.20
3.92
-0.24
-2.75
-2.74
-0.34
3.47
7.35
10.26
11.85
12.39
12.39
12.20
11.80
10.83
8.90
5.87
1.95
-2.39
-6.55
-10.03
-12.42
-13.50
-13.21
-11.67
-9.20
-6.24
-3.31
-0.96
0.28
0.01
-1.97
-5.46
-9.82
-14.02
-16.98
-17.80
-16.19
-12.44
-7.35
-1.94
2.95
6.80
9.51
11.25
12.21
12.52
12.10
10.86
8.81
6.20
3.54
1.43
0.33
0.36
1.33
2.86
4.58
6.28
7.85
9.26
10.40
11.09
11.17
10.61
9.57
8.33
7.11
5.98
4.77
3.18
1.04
-1.58
-4.26
-6.40
-7.48
-7.26
-5.98
-4.20
-2.61
-1.71
-1.61
-2.16
-3.00
-3.84
-4.50
-4.97
-5.39
-5.91
-6.72
-7.88
-9.29
-10.66
-11.59
-11.66
-10.64
-8.55
-5.61
-2.18
1.41
4.91
8.13
10.89
13.03
14.36
14.86
14.66
14.02
13.32
12.82
12.67
12.78
12.97
13.02
12.71
11.89
10.47
8.48
6.07
3.48
1.02
-1.04
-2.58
-3.59
-4.26
-4.83
-5.51
-6.47
-7.67
-8.94
-9.96
-10.39
-9.99
-8.67
-6.58
-4.06
-1.50
0.83
2.78
4.34
5.57
6.46
6.93
6.88
6.35
5.52
4.75
4.38
4.57
5.24
6.05
6.54
6.37
5.43
3.95
2.35
1.05
0.31
0.15
0.34
0.53
0.42
-0.19
-1.41
-3.24
-5.56
-8.14
-10.55
-12.29
-12.91
-12.19
-10.24
-7.44
-4.32
-1.33
1.19
3.15
4.57
5.51
6.08
6.36
6.48
6.58
6.75
7.05
7.45
7.88
8.22
8.38
8.26
7.79
6.95
5.81
4.52
3.32
2.41
1.92
1.80
1.82
1.69
1.10
-0.08
-1.81
-3.88
-5.99
-7.83
-9.17
-9.84
-9.77
-8.96
-7.48
-5.48
-3.24
-1.02
0.90
2.25
2.91
2.83
2.14
1.14
0.22
-0.24
-0.04
0.77
1.90
2.97
3.64
3.83
3.61
3.19
2.77
2.49
2.43
2.65
3.18
4.02
4.96
5.72
5.92
5.27
3.68
1.31
-1.55
-4.46
-7.06
-8.92
-9.72
-9.24
-7.51
-4.80
-1.64
1.35
3.68
5.13
5.82
6.07
6.24
6.59
7.15
7.80
8.40
8.87
9.28
9.77
10.48
11.41
12.41
13.23
13.61
13.40
12.68
11.72
10.99
10.96
11.89
13.74
16.10
18.48
20.50
22.11
23.51
24.88
26.25
27.43
28.26
28.87
29.62
30.78
32.23
33.34
33.36
32.01
29.97
28.76
29.94
34.22
40.81
47.77
52.81
54.45
52.50
48.02
42.54
37.26
32.52
27.85
22.35
15.32
6.73
-2.63
-11.46
-18.49
-23.00
-25.20
-26.03
-26.69
-28.05
-30.33
-33.19
-36.20
-39.17
-42.25
-45.69
-49.33
-52.46
-54.09
-53.51
-50.78
-46.84
-42.95
-40.14
-38.57
-37.56
-35.92
-32.60
-27.12
-19.83
-11.75
-4.16
1.86
5.86
8.25
10.17
13.01
17.76
24.38
31.74
38.05
41.69
42.10
39.99
37.02
34.89
34.47
35.56
37.11
38.13
38.20
37.66
37.19
37.03
36.73
35.11
31.09
24.36
15.70
6.79
-0.65
-5.54
-7.86
-8.47
-8.55
-9.17
-10.89
-13.81
-17.65
-21.88
-25.96
-29.39
-31.79
-32.98
-32.94
-31.84
-29.95
-27.57
-24.98
-22.29
-19.41
-16.02
-11.71
-6.26
0.15
6.84
12.92
17.75
21.19
23.66
25.76
27.82
29.65
30.68
30.40
28.66
25.92
22.86
19.92
16.95
13.22
7.95
0.90
-7.29
-15.21
-21.29
-24.60
-25.30
-24.58
-24.10
-25.01
-27.47
-30.61
-33.09
-33.91
-32.93
-30.92
-29.12
-28.65
-30.05
-33.10
-37.02
-40.86
-43.72
-45.03
-44.58
-42.56
-39.61
-36.66
-34.75
-34.67
-36.63
-40.26
-44.76
-49.21
-52.86
-55.13
-55.61
-54.03
-50.33
-44.85
-38.38
-32.05
-26.89
-23.40
-21.29
-19.75
-17.94
-15.46
-12.67
-10.33
-9.18
-9.44
-10.71
-12.24
-13.32
-13.66
-13.33
-12.55
-11.45
-9.86
-7.59
-4.53
-0.82
3.26
7.43
11.53
15.58
19.55
23.37
26.80
29.57
31.43
32.18
31.67
29.81
26.72
22.77
18.71
15.34
13.30
12.66
12.94
13.28
12.78
10.87
7.24
1.92
-4.90
-12.85
-21.34
-29.69
-37.23
-43.45
-48.07
-50.90
-51.76
-50.42
-46.76
-41.08
-34.12
-26.90
-20.31
-14.75
-10.19
-6.31
-2.80
0.57
4.09
8.22
13.36
19.43
25.54
30.17
31.92
30.35
26.53
22.52
20.29
20.60
22.60
24.38
24.17
21.47
17.14
12.83
9.97
8.99
9.32
9.92
9.99
9.28
7.88
5.94
3.36
-0.07
-4.43
-9.36
-14.10
-17.86
-20.10
-20.69
-19.79
-17.64
-14.40
-10.29
-5.67
-1.22
2.28
4.19
4.28
2.88
0.65
-1.57
-3.12
-3.56
-2.72
-0.78
1.77
4.06
5.08
4.05
0.77
-4.12
-9.37
-13.55
-15.63
-15.46
-13.77
-11.90
-11.25
-12.84
-17.07
-23.61
-31.47
-39.18
-44.98
-47.46
-45.90
-40.71
-33.29
-25.52
-19.09
-14.91
-13.04
-12.85
-13.52
-14.39
-14.93
-14.62
-12.89
-9.25
-3.71
3.16
10.35
16.84
22.15
26.25
29.55
32.44
35.06
37.45
39.57
41.57
43.64
45.76
47.64
48.65
48.33
46.54
43.61
39.98
35.92
31.38
26.12
20.11
13.70
7.51
2.12
-2.24
-5.81
-9.03
-12.22
-15.37
-18.13
-20.13
-21.26
-21.83
-22.38
-23.31
-24.78
-26.52
-28.10
-28.94
-28.43
-26.06
-21.48
-14.84
-6.91
1.03
7.55
11.68
13.24
12.95
11.93
11.05
10.53
9.84
8.09
4.55
-1.01
-8.27
-16.50
-24.77
-32.04
-37.22
-39.49
-38.53
-34.86
-29.75
-24.91
-21.68
-20.50
-20.73
-21.03
-20.23
-18.01
-15.01
-12.46
-11.25
-11.55
-12.70
-13.69
-13.81
-12.81
-10.95
-8.42
-5.21
-1.10
4.04
9.79
15.34
19.67
22.11
22.51
21.15
18.40
14.44
9.20
2.63
-4.96
-12.89
-20.26
-26.41
-31.23
-35.03
-38.21
-40.65
-41.70
-40.45
-36.33
-29.68
-21.65
-13.88
-7.59
-3.28
-0.52
1.54
3.79
6.85
10.99
16.22
22.40
29.19
36.21
43.08
49.47
55.06
59.36
61.60
60.77
56.25
48.27
38.16
28.01
19.88
14.97
13.48
14.91
18.35
22.39
24.50
21.00
8.06
-16.18
-49.57
-85.58
-115.22
-131.04
-130.51
-117.11
-98.22
-81.07
-69.34
-62.06
-55.50
-46.23
-33.27
-18.15
-3.03
11.23
25.77
42.56
62.61
84.67
105.45
121.24
129.75
131.05
127.17
120.87
114.16
107.71
101.06
93.46
84.61
74.82
64.69
54.58
44.33
33.62
22.19
10.12
-2.30
-14.84
-27.53
-40.72
-54.59
-68.85
-82.34
-93.36
-100.30
-102.31
-99.78
-94.07
-86.67
-78.47
-69.30
-58.21
-44.18
-26.85
-6.89
14.38
35.53
55.61
74.26
91.22
105.97
117.47
124.56
126.59
123.78
117.29
108.81
99.81
91.09
82.64
73.88
64.20
53.41
41.92
30.49
19.87
10.24
1.02
-8.73
-19.82
-32.13
-44.44
-54.94
-62.01
-65.13
-65.01
-63.20
-61.18
-59.64
-58.34
-56.39
-52.87
-47.39
-40.17
-31.98
-23.75
-16.25
-9.99
-5.24
-2.20
-1.08
-2.11
-5.30
-10.17
-15.43
-19.30
-20.05
-16.96
-10.80
-3.62
2.11
4.74
4.13
1.67
-0.58
-0.88
1.52
6.25
12.32
18.49
23.56
26.42
26.08
22.08
14.99
6.73
0.27
-1.50
2.96
12.88
25.39
36.69
43.67
45.15
42.11
36.99
32.51
30.65
32.20
36.91
43.95
52.19
60.30
66.96
71.20
72.93
73.16
73.48
75.04
77.31
77.47
71.28
54.73
26.22
-12.37
-56.28
-99.72
-138.13
-169.25
-192.67
-208.54
-216.65
-216.60
-208.85
-195.64
-180.66
-167.54
-158.00
-151.04
-143.63
-132.73
-117.00
-97.44
-76.55
-56.74
-39.44
-24.87
-12.62
-2.34
6.19
13.18
19.06
24.24
28.88
32.66
35.02
35.79
35.60
35.82
37.74
41.66
46.64
50.80
52.46
51.11
47.75
44.47
43.51
46.47
53.81
65.04
78.80
93.19
105.96
114.87
118.46
116.76
111.71
106.48
104.33
106.95
113.35
119.90
121.41
113.30
93.88
66.25
38.29
20.45
21.78
45.42
86.50
133.41
172.30
192.78
191.50
171.95
141.11
105.28
67.97
30.51
-6.00
-39.45
-67.48
-89.14
-105.64
-119.24
-130.92
-139.05
-140.38
-132.77
-117.57
-99.57
-84.59
-76.17
-73.94
-74.71
-75.39
-75.37
-76.72
-81.99
-91.60
-102.79
-110.79
-111.50
-103.92
-90.78
-76.93
-66.69
-61.61
-59.86
-57.63
-51.48
-40.43
-26.51
-13.52
-4.99
-2.31
-4.21
-7.76
-9.97
-9.27
-5.94
-1.52
2.26
4.41
4.78
3.72
1.52
-1.90
-6.89
-13.68
-21.90
-30.56
-38.18
-43.42
-45.58
-44.75
-41.72
-37.49
-32.85
-28.19
-23.63
-19.28
-15.35
-12.05
-9.32
-6.51
-2.57
3.58
12.25
22.50
32.24
38.88
40.58
37.11
29.98
21.89
15.37
11.82
11.03
11.57
11.70
10.17
6.69
1.82
-3.36
-7.63
-9.89
-9.22
-5.14
2.17
11.67
21.48
29.36
33.31
32.23
26.33
17.04
6.46
-3.35
-10.93
-15.69
-17.77
-17.76
-16.27
-13.74
-10.38
-6.23
-1.31
4.29
10.32
16.41
22.09
26.88
30.38
32.29
32.50
31.01
27.94
23.51
18.11
12.34
6.87
2.34
-0.83
-2.65
-3.42
-3.63
-3.59
-3.36
-2.73
-1.45
0.55
3.06
5.56
7.52
8.41
7.95
6.07
3.02
-0.57
-3.85
-5.95
-6.25
-4.60
-1.36
2.73
6.95
10.83
14.24
17.32
20.15
22.72
24.78
26.13
26.67
26.51
25.93
25.18
24.37
23.49
22.48
21.34
20.17
19.15
18.41
17.87
17.34
16.53
15.30
13.70
11.99
10.46
9.28
8.41
7.67
6.92
6.18
5.52
5.02
4.56
3.79
2.25
-0.42
-4.18
-8.50
-12.48
-15.01
-15.26
-12.93
-8.44
-2.77
2.90
7.60
10.95
13.10
14.63
16.09
17.69
19.32
20.61
21.37
21.67
21.80
22.10
22.63
23.11
23.08
22.22
20.60
18.71
17.18
16.42
16.34
16.36
15.69
13.82
10.76
6.99
3.21
-0.00
-2.43
-4.21
-5.65
-7.09
-8.79
-10.82
-13.21
-15.74
-18.10
-19.83
-20.40
-19.57
-17.37
-14.14
-10.44
-6.72
-3.30
-0.34
2.09
3.92
5.20
6.03
6.68
7.44
8.50
9.82
11.07
11.87
11.86
10.97
9.40
7.53
5.71
4.16
2.91
1.95
1.25
0.83
0.67
0.76
0.96
1.01
0.80
0.23
-0.56
-1.38
-2.15
-3.00
-4.32
-6.56
-9.97
-14.31
-18.80
-22.32
-23.80
-22.58
-18.73
-12.92
-6.35
-0.13
4.93
8.54
10.95
12.62
13.94
14.98
15.52
15.22
13.96
11.99
9.78
7.95
6.89
6.57
6.75
7.04
7.26
7.46
7.83
8.50
9.40
10.18
10.36
9.60
7.90
5.64
3.45
1.90
1.26
1.38
1.71
1.70
0.98
-0.48
-2.51
-4.85
-7.37
-10.04
-12.80
-15.32
-17.04
-17.32
-15.80
-12.55
-8.12
-3.45
0.62
3.48
5.04
5.65
5.84
6.08
6.57
7.16
7.52
7.43
6.93
6.33
6.01
6.14
6.58
6.97
6.88
6.15
4.98
3.75
2.86
2.46
2.37
2.27
1.83
0.94
-0.33
-1.73
-3.06
-4.17
-5.03
-5.78
-6.53
-7.48
-8.75
-10.36
-12.28
-14.37
-16.48
-18.44
-20.08
-21.20
-21.57
-21.00
-19.31
-16.55
-13.01
-9.18
-5.70
-3.05
-1.36
-0.49
-0.08
0.21
0.48
0.62
0.38
-0.32
-1.37
-2.38
-2.94
-2.81
-1.99
-0.79
0.46
1.56
2.54
3.56
4.80
6.20
7.43
7.98
7.42
5.67
3.05
0.21
-2.17
-3.75
-4.63
-5.35
-6.63
-8.90
-12.09
-15.58
-18.47
-19.94
-19.63
-17.77
-14.95
-11.85
-8.89
-6.16
-3.59
-1.17
0.89
2.16
2.36
1.48
-0.01
-1.44
-2.17
-1.95
-0.98
0.20
1.03
1.26
0.96
0.44
-0.01
-0.29
-0.53
-0.95
-1.77
-3.05
-4.68
-6.51
-8.35
-10.07
-11.54
-12.67
-13.40
-13.73
-13.86
-14.07
-14.71
-15.89
-17.46
-19.03
-20.01
-19.96
-18.68
-16.31
-13.28
-10.13
-7.36
-5.33
-4.10
-3.52
-3.25
-2.93
-2.24
-1.05
0.56
2.43
4.30
6.00
7.41
8.47
9.21
9.67
9.89
9.94
9.90
9.83
9.72
9.52
9.10
8.29
7.06
5.40
3.48
1.53
-0.26
-1.72
-2.85
-3.82
-4.97
-6.72
-9.33
-12.72
-16.40
-19.56
-21.34
-21.15
-18.95
-15.22
-10.79
-6.48
-2.87
-0.21
1.55
2.68
3.49
4.19
4.89
5.55
5.98
6.12
5.94
5.67
5.58
5.88
6.56
7.37
7.99
8.24
8.22
8.25
8.62
9.36
10.17
10.58
10.25
9.11
7.45
5.70
4.16
2.86
1.53
-0.12
-2.20
-4.59
-6.96
-9.07
-10.92
-12.75
-14.93
-17.61
-20.60
-23.29
-24.92
-24.84
-22.78
-19.05
-14.36
-9.63
-5.67
-2.88
-1.21
-0.29
0.38
1.15
2.19
3.43
4.81
6.20
7.63
9.11
10.60
11.99
13.05
13.63
13.66
13.20
12.38
11.34
10.19
8.92
7.57
6.21
4.93
3.86
3.02
2.43
2.00
1.61
1.19
0.69
0.07
-0.69
-1.64
-2.84
-4.34
-6.30
-8.82
-11.96
-15.59
-19.31
-22.43
-24.18
-24.06
-21.97
-18.31
-13.74
-8.92
-4.25
0.13
4.14
7.63
10.33
12.00
12.62
12.46
12.05
11.79
11.86
12.19
12.46
12.49
12.23
11.77
11.20
10.62
10.03
9.45
8.89
8.33
7.72
6.92
5.78
4.23
2.42
0.57
-1.02
-2.22
-3.04
-3.64
-4.28
-5.22
-6.73
-9.02
-12.12
-15.69
-18.99
-21.09
-21.05
-18.52
-13.78
-7.76
-1.67
3.50
7.25
9.66
11.12
12.07
12.72
13.10
13.15
12.93
12.68
12.77
13.37
14.38
15.29
15.29
13.73
10.34
5.55
0.29
-4.35
-7.62
-9.39
-10.28
-11.22
-13.04
-15.99
-19.70
-23.40
-26.38
-28.32
-29.38
-30.15
-31.31
-33.44
-36.82
-41.37
-46.58
-51.54
-54.97
-55.60
-52.56
-45.76
-36.07
-25.07
-14.54
-5.81
0.63
5.16
8.75
12.49
17.13
22.99
29.79
36.85
43.31
48.28
51.03
51.24
49.03
45.04
40.14
35.23
31.07
28.02
26.22
25.55
25.81
26.64
27.57
28.00
27.30
24.98
20.83
15.04
8.16
0.93
-5.86
-11.51
-15.62
-18.03
-18.96
-18.87
-18.36
-17.88
-17.56
-17.11
-15.97
-13.61
-9.82
-4.84
0.63
5.79
9.95
12.79
14.37
15.05
15.25
15.26
15.12
14.68
13.81
12.55
11.31
10.64
11.14
12.97
15.82
18.87
21.23
22.29
22.03
20.99
19.89
19.28
19.19
19.17
18.50
16.66
13.50
9.43
5.16
1.51
-1.02
-2.33
-2.81
-3.09
-3.73
-5.01
-6.83
-8.81
-10.50
-11.58
-11.98
-11.85
-11.37
-10.54
-9.05
-6.42
-2.16
3.80
10.95
18.29
24.53
28.58
29.85
28.49
25.22
21.25
17.99
16.81
18.65
23.49
29.88
34.91
34.98
27.27
11.22
-10.59
-33.04
-50.26
-57.83
-54.47
-42.19
-25.05
-7.06
9.38
23.86
37.09
49.48
60.19
67.21
68.27
62.08
49.18
31.71
12.63
-5.31
-20.19
-31.12
-37.98
-41.11
-41.19
-39.13
-36.03
-33.01
-31.08
-31.06
-33.55
-39.02
-47.57
-58.62
-70.68
-81.44
-88.43
-89.89
-85.56
-76.79
-65.95
-55.37
-46.35
-38.76
-31.31
-22.32
-10.54
4.33
21.61
39.78
56.93
71.01
80.28
83.77
81.70
75.42
66.96
58.03
49.12
39.07
25.68
7.14
-16.49
-42.55
-66.42
-83.37
-90.78
-89.59
-83.94
-79.16
-79.01
-83.61
-89.35
-90.89
-84.14
-68.37
-46.41
-22.82
-1.52
15.91
30.11
42.28
52.62
60.00
63.21
62.50
60.21
59.60
62.77
69.26
76.42
81.27
82.54
80.97
78.18
74.70
69.15
59.27
44.11
25.67
8.63
-1.86
-2.92
4.60
17.06
30.30
42.09
52.76
64.26
78.47
95.60
114.12
131.51
145.34
153.85
155.80
150.19
135.86
111.57
76.37
30.34
-24.69
-84.56
-142.75
-191.13
-221.53
-227.65
-206.72
-160.29
-93.81
-15.36
65.83
140.74
201.84
244.34
267.06
272.50
265.71
252.24
236.31
219.86
203.21
186.47
170.41
156.22
144.27
132.88
118.38
96.70
65.39
24.74
-22.14
-70.91
-117.63
-159.97
-197.73
-232.99
-269.94
-313.76
-368.46
-434.29
-506.08
-573.73
-625.25
-651.22
-648.23
-619.69
-573.66
-519.00
-462.11
-405.82
-350.39
-295.38
-241.05
-188.24
-137.46
-87.94
-37.43
16.59
75.31
137.37
198.80
253.85
297.11
325.21
337.94
337.95
329.36
316.05
300.19
282.01
260.60
235.52
208.01
181.16
158.76
143.27
134.24
128.15
119.78
104.62
81.11
51.11
18.70
-12.06
-39.23
-63.62
-87.71
-113.62
-141.33
-168.09
-189.28
-200.17
-197.60
-181.17
-153.19
-117.79
-79.44
-41.51
-5.59
28.30
60.56
90.84
117.22
136.47
145.33
142.05
127.52
105.18
79.92
56.35
37.40
23.97
15.43
10.66
8.80
9.42
12.23
16.64
21.55
25.67
27.84
27.44
24.39
18.94
11.50
2.49
-7.61
-18.24
-28.81
-38.86
-48.18
-56.81
-64.91
-72.61
-79.86
-86.33
-91.46
-94.54
-94.89
-92.16
-86.56
-78.93
-70.48
-62.36
-55.10
-48.43
-41.43
-32.98
-22.33
-9.26
6.04
23.40
42.95
64.95
89.25
114.75
139.21
159.74
173.83
180.34
179.92
174.65
167.13
159.51
152.95
147.65
143.35
139.81
137.06
135.32
134.81
135.55
137.14
138.73
139.08
136.77
130.76
120.89
108.16
94.37
81.39
70.33
61.11
52.76
44.05
34.28
23.54
12.44
1.68
-8.41
-17.88
-26.92
-35.56
-43.51
-50.23
-55.25
-58.45
-60.26
-61.37
-62.27
-62.59
-60.88
-54.95
-43.00
-24.79
-2.25
21.09
41.54
56.88
67.17
74.19
79.76
84.37
86.57
84.22
76.25
63.83
50.10
38.35
29.91
23.15
13.95
-2.36
-28.76
-65.11
-107.99
-151.57
-189.14
-214.66
-224.21
-216.95
-195.54
-165.79
-135.24
-111.19
-98.71
-99.31
-110.70
-127.68
-143.75
-153.11
-152.17
-140.59
-121.03
-97.92
-75.78
-57.68
-44.57
-35.53
-28.81
-22.73
-16.17
-8.51
0.64
11.37
23.23
34.96
44.73
50.92
52.98
51.63
48.51
45.40
43.39
42.79
43.33
44.61
46.22
47.61
47.62
44.49
36.79
24.80
11.47
1.93
1.23
11.46
29.96
49.93
63.35
64.91
54.73
38.59
25.33
22.99
35.38
60.79
92.99
123.82
145.97
154.86
149.45
131.88
106.68
79.40
54.93
36.24
23.85
16.60
13.10
13.26
18.82
32.35
55.68
88.51
128.12
170.15
209.82
242.91
266.20
277.30
274.74
258.27
229.31
191.01
147.48
102.45
58.08
14.56
-29.58
-76.70
-129.33
-189.33
-256.68
-328.41
-398.14
-457.02
-496.12
-509.30
-495.33
-458.14
-405.07
-344.09
-281.42
-220.68
-163.71
-112.09
-68.28
-35.37
-15.62
-8.77
-11.31
-17.47
-21.50
-20.14
-14.08
-7.52
-5.86
-12.81
-28.43
-48.91
-68.41
-81.79
-86.85
-85.02
-80.24
-76.75
-77.04
-80.81
-85.44
-87.45
-84.41
-76.03
-64.32
-52.45
-43.25
-37.80
-34.94
-31.77
-25.15
-13.30
3.14
21.10
36.30
45.13
46.38
41.92
35.99
33.31
36.96
47.08
60.94
74.40
83.78
87.37
85.68
80.62
74.23
67.58
60.64
52.82
43.90
34.57
26.15
19.90
16.16
14.10
12.10
8.61
2.94
-4.40
-12.00
-18.26
-21.98
-22.84
-21.27
-18.12
-14.15
-9.82
-5.29
-0.68
3.59
6.83
8.24
7.45
4.92
1.90
0.07
0.70
4.12
9.59
15.72
21.24
25.55
28.83
31.76
35.08
39.20
44.20
49.87
55.87
61.76
66.83
70.14
70.58
67.23
59.92
49.53
38.10
28.45
23.33
24.43
31.63
42.86
54.84
64.34
69.64
71.22
71.48
73.42
78.99
88.02
97.84
104.56
104.74
96.97
82.83
66.41
52.72
45.68
46.63
53.90
63.72
71.80
74.93
71.93
63.72
52.63
41.53
33.04
28.87
29.52
33.99
39.95
44.49
45.30
41.87
35.99
31.20
31.24
38.29
51.69
67.94
82.13
89.56
87.52
75.92
56.69
32.59
6.16
-20.66
-46.43
-69.84
-89.92
-106.36
-119.93
-132.39
-145.67
-160.79
-177.04
-191.87
-201.66
-203.03
-193.63
-172.61
-140.55
-99.74
-53.99
-8.12
33.19
66.99
93.07
113.78
132.50
151.26
169.23
182.83
187.61
180.74
162.80
137.74
111.15
87.93
70.64
59.39
52.91
49.95
50.16
53.98
61.89
73.50
87.12
100.20
110.34
116.34
118.48
118.14
116.75
114.73
110.81
102.33
86.27
60.52
24.84
-18.98
-67.26
-114.74
-155.02
-181.50
-188.95
-175.46
-143.84
-101.42
-58.14
-23.25
-2.44
3.37
-2.72
-15.81
-31.37
-46.43
-59.45
-69.61
-76.26
-79.01
-78.28
-75.49
-72.79
-72.23
-74.91
-80.53
-87.47
-93.45
-96.53
-95.98
-92.62
-88.44
-85.72
-85.94
-89.09
-93.71
-97.71
-99.35
-97.98
-94.12
-88.95
-83.54
-78.30
-72.92
-66.74
-59.40
-51.24
-43.34
-37.13
-33.82
-33.93
-36.91
-41.30
-45.01
-45.93
-42.67
-35.01
-24.09
-12.10
-1.59
5.32
7.53
5.19
-0.44
-7.55
-14.31
-19.42
-22.25
-22.81
-21.52
-18.97
-15.76
-12.57
-10.15
-9.36
-10.92
-15.07
-21.29
-28.13
-33.51
-35.23
-31.67
-22.28
-7.74
10.24
29.47
47.93
64.23
77.95
89.28
98.82
107.01
113.91
119.22
122.41
123.01
120.71
115.55
107.83
98.42
88.75
80.55
74.98
71.50
67.36
58.09
39.52
9.98
-28.21
-69.26
-106.17
-133.34
-148.39
-152.11
-147.12
-136.29
-121.92
-106.06
-91.06
-79.65
-73.92
-74.17
-78.18
-81.95
-81.59
-75.07
-63.02
-48.07
-33.23
-20.25
-9.03
1.87
13.99
27.82
42.46
56.09
67.01
74.36
78.27
79.38
78.20
74.71
68.39
58.83
46.22
31.66
16.92
3.95
-5.80
-11.80
-14.44
-14.74
-13.82
-12.47
-10.88
-8.77
-5.73
-1.58
3.42
8.59
13.07
16.11
17.32
16.67
14.44
11.12
7.35
3.82
1.21
-0.07
-0.04
0.76
1.37
0.74
-1.83
-6.42
-12.50
-19.12
-25.26
-30.09
-33.07
-33.96
-32.77
-29.88
-26.06
-22.40
-20.12
-20.17
-22.93
-28.08
-34.79
-42.06
-48.95
-54.64
-58.32
-59.06
-55.98
-48.53
-36.89
-21.96
-5.14
12.17
28.92
44.52
58.61
70.77
80.46
87.14
90.63
91.16
89.17
85.10
79.03
70.87
60.63
48.68
35.90
23.45
12.35
3.31
-3.42
-7.94
-10.55
-11.65
-11.65
-10.86
-9.40
-7.16
-3.91
0.39
5.33
10.05
13.43
14.56
13.17
9.72
5.13
0.45
-3.54
-6.37
-7.80
-7.78
-6.48
-4.43
-2.54
-1.95
-3.53
-7.59
-13.56
-20.18
-25.87
-29.33
-29.80
-27.24
-22.15
-15.43
-8.10
-1.20
4.44
8.30
10.29
10.69
10.05
9.01
8.11
7.71
7.90
8.47
9.11
9.45
9.34
8.88
8.42
8.35
8.90
9.96
11.10
11.74
11.47
10.23
8.34
6.39
4.97
4.45
4.90
5.95
6.92
6.97
5.44
2.14
-2.43
-7.24
-11.03
-12.83
-12.35
-9.97
-6.53
-2.80
0.82
4.32
7.88
11.45
14.65
16.90
17.74
17.12
15.48
13.61
12.36
12.36
13.88
16.70
20.24
23.59
25.67
25.59
22.90
17.89
11.65
5.67
1.22
-1.19
-2.06
-2.62
-3.99
-6.58
-9.76
-12.14
-12.37
-9.78
-4.82
1.07
5.97
8.18
6.68
1.47
-6.49
-15.50
-23.60
-29.08
-30.90
-28.93
-23.82
-16.71
-8.85
-1.31
5.15
10.03
13.05
14.08
13.16
10.65
7.25
3.92
1.82
1.85
4.38
8.96
14.30
18.67
20.45
18.79
13.95
7.21
0.39
-4.85
-7.56
-7.70
-6.07
-3.83
-2.05
-1.37
-1.91
-3.31
-4.99
-6.31
-6.67
-5.65
-3.13
0.75
5.36
9.83
13.18
14.67
14.02
11.47
7.68
3.44
-0.62
-4.19
-7.37
-10.40
-13.47
-16.40
-18.52
-18.86
-16.50
-11.05
-3.07
5.95
13.93
18.86
19.43
15.55
8.36
-0.19
-7.87
-12.93
-14.49
-12.65
-8.42
-3.20
1.66
5.23
7.34
8.47
9.50
11.24
14.09
17.69
21.04
22.80
21.78
17.51
10.58
2.54
-4.47
-8.43
-8.22
-3.96
2.88
9.99
14.99
16.15
12.83
5.65
-3.87
-13.78
-22.17
-27.76
-30.10
-29.60
-27.29
-24.41
-21.89
-20.06
-18.71
-17.24
-15.09
-11.92
-7.74
-2.74
2.77
8.42
13.59
17.56
19.54
19.07
16.25
11.85
6.99
2.83
0.01
-1.41
-1.93
-2.25
-3.00
-4.47
-6.61
-9.15
-11.66
-13.78
-15.21
-15.80
-15.52
-14.35
-12.33
-9.54
-6.20
-2.65
0.68
3.34
5.11
5.91
5.93
5.39
4.47
3.27
1.84
0.26
-1.31
-2.67
-3.65
-4.22
-4.48
-4.63
-4.90
-5.34
-5.93
-6.50
-6.91
-7.14
-7.37
-7.91
-9.00
-10.67
-12.64
-14.39
-15.44
-15.58
-14.93
-13.94
-13.06
-12.63
-12.76
-13.40
-14.44
-15.77
-17.28
-18.68
-19.50
-19.09
-16.76
-12.06
-5.04
3.62
12.60
20.27
25.04
25.92
22.74
16.27
8.02
-0.31
-7.25
-11.93
-14.08
-13.93
-11.90
-8.48
-4.13
0.68
5.50
9.88
13.50
16.17
17.84
18.48
18.09
16.68
14.35
11.38
8.25
5.51
3.61
2.70
2.58
2.72
2.45
1.28
-0.89
-3.66
-6.25
-7.82
-7.82
-6.28
-3.79
-1.35
0.18
0.40
-0.36
-1.20
-1.11
0.50
3.46
6.83
9.30
9.87
8.36
5.60
3.12
2.55
4.79
9.70
16.08
22.12
26.04
26.56
23.28
16.71
8.06
-1.02
-8.87
-14.35
-17.37
-18.99
-21.21
-25.97
-34.17
-44.74
-54.70
-60.09
-57.55
-46.16
-28.53
-10.68
-0.02
-2.22
-18.25
-43.32
-68.42
-84.10
-84.42
-69.21
-43.68
-15.74
7.04
19.25
17.99
2.30
-26.99
-66.63
-110.34
-149.54
-175.78
-183.84
-173.84
-150.78
-121.88
-93.24
-67.82
-45.33
-23.93
-2.11
20.36
42.74
64.32
85.00
105.04
124.17
140.85
152.31
155.71
149.73
135.60
117.15
99.34
86.21
79.20
76.58
74.49
68.82
57.11
39.39
17.78
-4.78
-25.92
-44.47
-60.36
-74.08
-85.96
-95.84
-102.89
-105.67
-102.33
-91.02
-70.56
-41.11
-4.44
36.33
77.55
116.07
149.87
178.01
200.30
216.82
227.96
234.72
238.97
243.16
249.38
257.99
266.81
271.29
266.04
246.97
213.49
169.40
122.26
81.04
53.05
41.35
43.81
54.20
64.64
68.73
63.44
49.34
29.21
5.72
-20.61
-52.17
-93.13
-146.56
-211.50
-281.35
-344.70
-388.98
-404.63
-388.22
-342.66
-274.97
-193.26
-104.82
-15.89
67.13
137.29
187.92
214.68
217.40
199.83
167.55
124.87
73.28
12.41
-57.14
-131.35
-202.37
-260.85
-299.75
-316.99
-315.85
-302.56
-282.94
-259.97
-233.26
-200.64
-160.50
-113.24
-61.45
-8.87
40.99
85.83
124.77
158.13
186.81
211.58
232.25
247.77
256.56
257.57
251.30
239.78
225.91
211.76
197.38
180.66
158.37
127.69
87.25
37.62
-18.69
-77.26
-132.00
-175.64
-201.09
-203.38
-181.75
-140.23
-86.42
-28.40
28.07
80.76
129.61
174.08
211.09
235.33
241.57
227.68
196.39
154.74
111.28
72.73
41.70
16.54
-6.32
-29.43
-52.45
-72.39
-86.00
-92.74
-96.78
-106.33
-130.26
-173.70
-234.29
-301.82
-361.59
-399.70
-408.16
-386.99
-342.91
-285.57
-224.15
-165.16
-112.49
-68.25
-33.23
-6.25
16.63
42.02
76.70
123.85
180.66
238.33
285.70
314.12
320.89
309.24
285.24
254.05
217.99
177.20
131.57
82.37
32.18
-16.35
-61.59
-103.08
-141.09
-175.86
-207.43
-235.75
-260.66
-281.14
-294.95
-298.83
-289.96
-267.76
-234.65
-195.05
-153.39
-111.66
-68.66
-21.13
34.29
98.40
168.17
236.73
294.97
334.19
348.61
336.77
301.36
248.04
183.74
115.42
49.55
-8.06
-52.24
-78.85
-85.64
-73.33
-46.21
-11.84
20.58
42.63
48.93
38.61
15.13
-15.62
-47.79
-77.51
-103.41
-125.66
-144.57
-159.77
-170.35
-175.91
-177.14
-175.75
-173.79
-173.02
-174.71
-179.77
-188.92
-202.40
-219.57
-238.61
-256.64
-270.37
-276.88
-274.11
-260.98
-237.35
-203.80
-161.71
-113.19
-60.92
-7.80
43.69
92.18
137.89
182.82
230.18
283.29
343.90
410.71
478.49
538.94
582.90
603.32
597.60
568.34
521.91
465.77
405.83
344.93
283.06
218.65
149.98
76.08
-2.74
-84.39
-164.52
-236.57
-293.06
-328.05
-339.68
-331.35
-310.69
-286.55
-265.73
-251.13
-242.02
-235.86
-230.11
-223.00
-213.18
-199.14
-179.19
-152.37
-119.39
-82.85
-46.57
-14.25
11.58
29.85
40.67
45.04
44.63
41.84
39.58
40.38
45.49
54.23
64.33
73.08
78.79
81.84
84.65
90.51
101.78
118.33
136.86
151.82
157.37
149.69
128.44
96.63
59.02
20.03
-17.77
-53.74
-87.96
-119.88
-147.75
-169.36
-183.45
-190.70
-193.55
-194.76
-195.78
-196.11
-193.81
-187.01
-175.30
-160.17
-144.27
-130.16
-119.33
-111.94
-107.26
-104.24
-101.77
-98.46
-92.51
-81.74
-64.45
-40.30
-10.93
20.23
49.14
72.54
89.01
99.06
104.41
106.89
107.68
107.20
105.62
103.26
100.82
98.97
97.99
97.50
96.72
94.93
91.93
88.07
84.02
80.38
77.54
75.76
75.27
76.12
77.74
78.49
75.68
66.34
48.57
22.77
-8.05
-39.04
-65.09
-82.58
-90.27
-89.26
-82.14
-71.81
-60.67
-50.20
-41.09
-33.50
-27.29
-22.10
-17.31
-12.06
-5.34
3.51
14.39
26.14
36.70
43.87
46.20
43.75
38.18
32.04
27.74
26.63
28.75
33.27
39.12
45.61
52.45
59.38
65.83
70.78
73.17
72.50
69.21
64.70
60.79
58.90
59.44
61.71
64.34
66.10
66.53
66.17
66.08
67.20
69.63
72.54
74.49
74.20
71.14
65.72
59.05
52.33
46.38
41.36
36.99
32.86
28.70
24.56
20.65
17.20
14.30
11.89
9.79
7.84
5.97
4.16
2.43
0.78
-0.86
-2.66
-4.75
-7.22
-9.84
-12.04
-12.97
-11.77
-7.98
-1.84
5.69
13.19
19.31
23.28
25.10
25.37
24.93
24.39
23.99
23.62
23.07
22.29
21.34
20.39
19.48
18.53
17.31
15.67
13.63
11.45
9.48
8.06
7.28
6.96
6.69
6.02
4.69
2.79
0.68
-1.08
-2.10
-2.32
-2.16
-2.26
-3.23
-5.41
-8.70
-12.72
-16.86
-20.51
-23.14
-24.27
-23.62
-21.13
-17.10
-12.14
-7.05
-2.53
0.98
3.45
5.17
6.55
7.87
9.24
10.52
11.52
12.07
12.17
11.98
11.76
11.75
12.06
12.62
13.22
13.59
13.51
12.90
11.76
10.17
8.15
5.71
2.88
-0.31
-3.65
-6.90
-9.69
-11.66
-12.52
-12.07
-10.31
-7.49
-4.12
-0.88
1.48
2.32
1.25
-1.84
-6.70
-12.77
-19.21
-24.96
-28.94
-30.34
-28.90
-25.01
-19.66
-14.09
-9.29
-5.76
-3.39
-1.73
-0.29
1.14
2.43
3.24
3.29
2.53
1.25
-0.10
-1.06
-1.26
-0.56
1.03
3.49
6.85
11.39
17.41
25.18
34.56
44.83
54.71
62.51
66.66
66.15
60.79
51.38
39.38
26.55
14.50
4.28
-3.65
-9.30
-12.91
-14.64
-14.41
-12.12
-7.94
-2.63
2.56
6.32
7.92
7.59
6.38
5.50
5.62
6.54
7.34
7.01
4.99
1.29
-3.84
-10.33
-18.29
-27.65
-37.56
-46.33
-52.02
-53.53
-51.25
-46.96
-42.82
-40.01
-38.10
-35.34
-29.95
-21.46
-11.39
-2.78
1.14
-1.39
-9.73
-20.96
-31.14
-37.05
-37.65
-34.30
-29.88
-27.09
-26.93
-28.27
-28.75
-26.39
-20.98
-14.24
-8.65
-5.94
-5.93
-6.84
-6.59
-4.33
-1.06
0.95
-0.26
-4.96
-11.27
-16.03
-16.49
-11.89
-3.88
4.29
9.41
9.96
6.74
2.33
-0.45
-0.02
3.17
7.02
8.96
7.42
2.51
-4.18
-10.60
-15.29
-17.87
-18.67
-18.03
-15.74
-11.04
-3.22
7.79
21.43
36.82
53.29
70.33
87.13
101.83
111.53
113.31
105.68
89.80
69.40
49.15
32.65
20.85
12.10
3.68
-6.35
-17.81
-28.61
-36.00
-38.23
-35.49
-29.73
-23.64
-19.33
-17.51
-17.48
-17.69
-16.68
-13.62
-8.60
-2.37
4.14
10.21
15.61
20.62
25.84
31.78
38.54
45.67
52.21
57.11
59.64
59.64
57.42
53.48
48.15
41.57
33.85
25.42
17.12
10.01
4.98
2.35
1.69
1.99
2.07
1.11
-0.97
-3.52
-5.34
-5.19
-2.36
2.96
9.48
15.13
17.74
15.83
9.32
-0.39
-10.75
-19.10
-23.67
-24.40
-22.95
-21.98
-23.92
-29.67
-38.14
-46.70
-52.36
-53.19
-48.97
-41.04
-31.44
-21.83
-12.84
-4.16
5.05
15.24
26.08
36.30
43.96
47.22
44.89
37.00
24.87
10.72
-2.98
-14.19
-21.71
-25.27
-25.46
-23.68
-22.27
-24.10
-31.33
-43.51
-56.46
-63.02
-56.23
-33.60
-0.12
32.49
50.67
46.16
21.19
-11.44
-34.12
-33.14
-5.51
39.81
86.72
120.00
131.67
122.94
101.17
74.75
49.01
25.29
2.74
-19.01
-38.50
-53.12
-61.05
-62.72
-60.85
-59.10
-60.38
-65.74
-74.43
-84.65
-94.66
-103.43
-110.66
-116.53
-121.34
-125.19
-127.89
-128.96
-127.68
-123.31
-115.42
-104.16
-90.56
-76.31
-63.27
-52.75
-44.90
-38.67
-32.20
-23.75
-12.43
1.33
16.14
30.27
42.46
52.38
60.54
67.92
75.44
83.55
92.15
100.65
108.22
114.10
117.81
119.43
119.60
119.33
119.56
120.66
121.91
121.48
116.76
105.40
86.30
60.43
30.79
1.59
-23.28
-41.64
-53.65
-61.42
-67.84
-75.10
-83.87
-93.20
-101.19
-105.97
-106.47
-102.70
-95.67
-87.05
-78.76
-72.57
-69.81
-71.08
-76.09
-83.79
-92.54
-100.59
-106.40
-109.00
-108.05
-103.89
-97.23
-89.01
-80.11
-71.19
-62.73
-55.05
-48.36
-42.77
-38.21
-34.35
-30.64
-26.40
-21.01
-14.14
-5.89
3.17
12.08
19.63
24.62
26.15
23.87
18.10
9.80
0.50
-8.08
-14.40
-17.49
-17.24
-14.30
-9.88
-5.18
-1.03
2.40
5.56
9.22
14.08
20.37
27.78
35.42
42.17
47.02
49.33
49.07
46.71
43.12
39.23
35.75
33.04
31.12
29.79
28.79
27.91
26.98
25.88
24.47
22.66
20.47
18.11
15.88
14.15
13.14
12.83
12.92
12.88
12.16
10.27
6.96
2.32
-3.15
-8.52
-12.61
-14.24
-12.78
-8.30
-1.72
5.53
12.06
17.02
20.30
22.49
24.33
26.41
28.89
31.54
34.00
36.04
37.71
39.31
41.18
43.58
46.53
49.81
53.18
56.41
59.44
62.33
65.13
67.78
70.07
71.82
72.96
73.60
73.94
74.00
73.44
71.56
67.60
61.03
51.79
40.17
26.57
11.28
-5.48
-23.35
-41.51
-58.66
-73.36
-84.56
-92.07
-96.63
-99.56
-102.11
-104.94
-107.87
-110.10
-110.63
-108.73
-104.17
-97.27
-88.67
-79.16
-69.47
-60.25
-52.01
-45.16
-39.91
-36.25
-33.95
-32.63
-31.95
-31.71
-31.90
-32.57
-33.65
-34.75
-34.98
-33.11
-27.79
-18.02
-3.57
14.78
35.22
55.34
72.68
85.34
92.39
93.92
90.77
84.10
74.95
64.12
52.15
39.52
26.76
14.51
3.29
-6.61
-15.21
-22.82
-29.74
-35.95
-41.06
-44.33
-45.17
-43.47
-39.88
-35.67
-32.28
-30.70
-31.16
-32.93
-34.75
-35.16
-32.95
-27.41
-18.33
-6.04
8.71
24.68
40.28
53.76
63.54
68.53
68.48
64.06
56.63
47.96
39.69
32.93
28.09
24.89
22.68
20.72
18.57
16.13
13.68
11.57
10.07
9.22
8.78
8.37
7.46
5.64
2.65
-1.46
-6.20
-10.75
-14.12
-15.44
-14.29
-10.89
-6.04
-0.86
3.62
6.76
8.41
8.88
8.64
8.08
7.46
6.86
6.29
5.83
5.59
5.65
5.94
6.24
6.32
5.98
5.27
4.40
3.61
3.03
2.54
1.89
0.81
-0.78
-2.66
-4.47
-5.81
-6.51
-6.77
-7.06
-7.93
-9.75
-12.51
-15.73
-18.62
-20.41
-20.57
-19.03
-16.08
-12.17
-7.79
-3.29
1.05
4.97
8.19
10.48
11.74
12.02
11.57
10.70
9.69
8.70
7.78
6.95
6.22
5.62
5.23
5.07
5.09
5.13
4.99
4.43
3.27
1.51
-0.76
-3.30
-5.83
-8.11
-10.03
-11.64
-13.20
-15.18
-18.02
-22.01
-26.95
-32.09
-36.18
-37.80
-35.85
-29.94
-20.62
-9.25
2.35
12.49
20.00
24.52
26.43
26.60
26.07
25.74
26.23
27.77
30.18
32.90
35.15
36.11
35.26
32.59
28.59
23.99
19.39
14.96
10.37
5.10
-1.14
-8.17
-15.26
-21.47
-25.96
-28.30
-28.56
-27.13
-24.65
-21.83
-19.43
-18.12
-18.29
-19.91
-22.43
-24.86
-26.20
-25.79
-23.53
-19.77
-15.07
-9.78
-3.95
2.61
9.93
17.69
25.08
31.09
34.83
35.80
34.03
30.02
24.48
18.21
11.91
6.20
1.50
-1.90
-4.00
-4.93
-4.91
-4.14
-2.79
-1.04
0.85
2.42
3.18
2.71
0.88
-2.15
-5.98
-10.15
-14.28
-17.97
-20.79
-22.15
-21.46
-18.39
-13.14
-6.59
-0.07
5.16
8.31
9.41
9.11
8.33
7.84
7.92
8.37
8.83
9.04
9.08
9.36
10.31
12.19
14.87
17.87
20.63
22.74
24.11
24.91
25.41
25.77
25.95
25.71
24.88
23.39
21.48
19.50
17.86
16.75
16.10
15.56
14.69
13.19
11.15
9.07
7.68
7.53
8.59
10.05
10.62
8.95
4.19
-3.81
-14.52
-26.95
-39.81
-51.56
-60.38
-64.38
-62.06
-52.87
-37.73
-18.87
0.80
18.68
33.25
44.24
52.16
57.58
60.54
60.50
56.70
48.85
37.57
24.52
12.05
2.62
-1.90
-0.70
5.59
14.97
24.43
30.57
30.47
22.71
7.96
-10.99
-30.05
-45.29
-54.65
-58.94
-61.63
-67.55
-80.78
-102.85
-131.78
-162.51
-188.19
-202.19
-199.87
-180.05
-145.36
-101.76
-56.98
-18.47
8.58
22.42
24.68
19.35
11.13
4.11
0.94
2.81
9.73
20.86
34.75
49.64
63.72
75.40
83.60
87.84
88.10
84.63
77.85
68.28
56.56
43.57
30.37
18.17
8.21
1.63
-0.66
1.86
9.23
20.76
34.88
49.22
60.93
67.32
66.68
58.82
45.17
28.31
11.12
-4.06
-15.89
-23.99
-28.57
-29.94
-28.40
-24.27
-18.22
-11.39
-5.25
-1.23
-0.19
-2.25
-6.78
-12.80
-19.31
-25.59
-31.22
-35.95
-39.52
-41.64
-41.96
-40.22
-36.42
-30.78
-23.78
-16.05
-8.27
-1.00
5.33
10.51
14.49
17.35
19.24
20.29
20.63
20.39
19.79
19.09
18.59
18.42
18.59
18.93
19.17
19.10
18.57
17.56
16.10
14.18
11.80
8.91
5.51
1.72
-2.25
-6.05
-9.39
-11.97
-13.63
-14.26
-13.83
-12.34
-9.87
-6.64
-3.02
0.44
3.16
4.70
4.89
3.95
2.41
0.96
0.22
0.54
1.90
3.94
6.12
7.94
9.13
9.65
9.69
9.46
9.08
8.49
7.50
5.88
3.48
0.39
-3.16
-6.77
-10.00
-12.51
-14.04
-14.50
-13.88
-12.27
-9.85
-6.94
-4.02
-1.72
-0.66
-1.24
-3.43
-6.79
-10.52
-13.77
-15.83
-16.30
-15.08
-12.33
-8.40
-3.76
1.00
5.22
8.29
9.79
9.55
7.75
4.82
1.34
-2.11
-5.02
-7.07
-8.04
-7.79
-6.18
-3.06
1.69
8.09
15.86
24.37
32.66
39.62
44.28
46.11
45.12
41.83
36.96
31.26
25.34
19.64
14.62
10.71
8.29
7.54
8.32
10.13
12.24
13.86
14.35
13.41
11.06
7.59
3.51
-0.69
-4.66
-8.26
-11.53
-14.57
-17.30
-19.42
-20.38
-19.59
-16.59
-11.27
-3.98
4.49
13.07
20.57
26.02
28.88
29.12
27.18
23.73
19.42
14.76
10.10
5.70
1.88
-1.07
-2.96
-3.84
-4.02
-3.92
-4.01
-4.45
-5.14
-5.75
-5.92
-5.41
-4.26
-2.75
-1.32
-0.34
0.01
-0.20
-0.68
-1.09
-1.17
-0.83
-0.13
0.79
1.76
2.67
3.46
4.08
4.43
4.41
3.91
2.95
1.74
0.57
-0.22
-0.47
-0.25
0.16
0.41
0.22
-0.44
-1.44
-2.51
-3.45
-4.17
-4.68
-4.98
-5.02
-4.69
-3.88
-2.52
-0.62
1.72
4.40
7.28
10.21
13.01
15.46
17.36
18.59
19.13
19.14
18.92
18.87
19.40
20.76
22.93
25.56
28.01
29.62
29.89
28.80
26.85
24.95
24.06
24.64
26.28
27.57
26.46
20.92
9.68
-7.20
-28.28
-51.05
-72.60
-90.29
-102.21
-107.51
-106.31
-99.65
-89.22
-76.95
-64.68
-53.82
-45.16
-38.85
-34.56
-31.73
-29.76
-28.20
-26.76
-25.26
-23.46
-20.87
-16.79
-10.48
-1.58
9.60
21.87
33.45
42.49
47.66
48.58
45.80
40.51
34.10
27.76
22.24
17.84
14.58
12.22
10.46
8.89
7.07
4.66
1.53
-2.14
-5.83
-8.82
-10.46
-10.44
-8.94
-6.57
-4.12
-2.26
-1.28
-1.06
-1.21
-1.29
-1.04
-0.41
0.43
1.28
2.03
2.76
3.62
4.75
6.19
7.78
9.27
10.39
11.01
11.17
11.07
10.92
10.84
10.79
10.55
9.93
8.83
7.34
5.67
4.03
2.50
0.93
-0.89
-3.18
-5.86
-8.55
-10.62
-11.43
-10.63
-8.32
-5.05
-1.61
1.25
3.08
3.85
3.87
3.58
3.31
3.20
3.17
3.10
2.94
2.84
2.99
3.56
4.49
5.47
6.09
5.94
4.93
3.24
1.29
-0.47
-1.76
-2.51
-2.87
-3.04
-3.21
-3.41
-3.66
-4.00
-4.60
-5.67
-7.31
-9.39
-11.50
-13.02
-13.43
-12.50
-10.43
-7.70
-4.90
-2.40
-0.29
1.61
3.52
5.51
7.36
8.78
9.50
9.50
9.02
8.41
7.98
7.85
7.92
8.02
7.94
7.61
7.03
6.24
5.27
4.15
2.87
1.44
-0.10
-1.68
-3.25
-4.74
-6.18
-7.68
-9.39
-11.41
-13.65
-15.85
-17.53
-18.17
-17.42
-15.20
-11.81
-7.81
-3.90
-0.68
1.54
2.75
3.22
3.31
3.32
3.34
3.27
2.98
2.41
1.67
1.01
0.62
0.51
0.51
0.36
-0.13
-0.92
-1.79
-2.50
-2.90
-3.06
-3.22
-3.64
-4.52
-5.87
-7.55
-9.41
-11.31
-13.15
-14.90
-16.41
-17.45
-17.75
-17.03
-15.20
-12.33
-8.66
-4.54
-0.31
3.77
7.54
10.84
13.57
15.61
16.84
17.21
16.78
15.70
14.17
12.46
10.81
9.43
8.45
7.87
7.59
7.46
7.35
7.17
6.93
6.62
6.26
5.77
5.09
4.20
3.09
1.81
0.36
-1.33
-3.41
-5.98
-9.06
-12.43
-15.63
-18.06
-19.15
-18.54
-16.27
-12.77
-8.72
-4.87
-1.80
0.24
1.36
1.88
2.16
2.48
2.90
3.41
3.91
4.35
4.74
5.10
5.41
5.62
5.62
5.36
4.86
4.26
3.75
3.51
3.55
3.75
3.86
3.69
3.20
2.51
1.82
1.27
0.84
0.32
-0.58
-2.09
-4.23
-6.81
-9.43
-11.61
-12.89
-12.95
-11.65
-9.08
-5.53
-1.42
2.80
6.69
9.94
12.38
13.97
14.81
15.07
14.94
14.60
14.17
13.69
13.07
12.13
10.60
8.18
4.69
0.19
-4.91
-9.83
-13.62
-15.44
-14.86
-12.04
-7.69
-2.85
1.48
4.64
6.39
6.81
6.10
4.38
1.65
-2.08
-6.64
-11.61
-16.44
-20.52
-23.33
-24.45
-23.53
-20.38
-15.09
-8.24
-0.86
5.65
10.04
11.52
10.03
6.22
1.13
-4.18
-8.86
-12.32
-14.17
-14.22
-12.42
-9.02
-4.52
0.39
4.98
8.62
10.92
11.70
10.97
8.88
5.66
1.67
-2.59
-6.50
-9.39
-10.73
-10.25
-8.08
-4.66
-0.71
3.00
5.73
6.90
6.22
3.65
-0.47
-5.43
-10.30
-14.02
-15.77
-15.13
-12.29
-7.92
-3.04
1.32
4.45
6.07
6.45
6.19
5.94
6.16
6.98
8.15
9.32
10.16
10.54
10.51
10.23
9.84
9.41
8.94
8.42
7.84
7.27
6.75
6.31
5.88
5.37
4.71
3.88
2.91
1.85
0.79
-0.23
-1.18
-2.07
-2.96
-3.96
-5.20
-6.76
-8.61
-10.51
-12.18
-13.31
-13.79
-13.68
-13.12
-12.13
-10.53
-7.97
-4.18
0.78
6.43
11.98
16.56
19.58
20.83
20.53
19.15
17.28
15.41
13.84
12.70
11.92
11.39
10.96
10.55
10.14
9.75
9.38
8.95
8.38
7.58
6.54
5.32
4.04
2.86
1.91
1.28
0.86
0.31
-0.95
-3.52
-7.72
-13.23
-19.11
-23.98
-26.63
-26.38
-23.33
-18.23
-12.11
-6.03
-0.84
2.74
4.25
3.53
0.91
-2.80
-6.49
-9.11
-10.01
-9.17
-7.00
-4.04
-0.71
2.82
6.44
9.92
12.86
14.68
14.96
13.63
11.05
7.82
4.62
1.91
-0.15
-1.57
-2.52
-3.08
-3.30
-3.22
-2.95
-2.70
-2.74
-3.23
-4.14
-5.18
-5.86
-5.74
-4.57
-2.53
-0.11
2.00
3.22
3.39
2.82
2.18
2.23
3.52
6.12
9.57
12.98
15.33
15.73
13.81
9.79
4.48
-1.05
-5.73
-8.92
-10.47
-10.69
-10.18
-9.52
-9.10
-9.01
-8.99
-8.56
-7.30
-5.06
-2.20
0.49
2.09
1.92
-0.15
-3.64
-7.67
-11.33
-13.90
-15.04
-14.74
-13.23
-10.91
-8.31
-6.04
-4.62
-4.36
-5.23
-6.78
-8.27
-8.82
-7.72
-4.61
0.27
6.11
11.70
15.79
17.41
16.20
12.49
7.09
1.07
-4.52
-8.88
-11.47
-11.96
-10.30
-6.61
-1.31
4.90
11.09
16.23
19.41
20.00
17.79
13.01
6.23
-1.71
-9.79
-16.90
-21.97
-24.22
-23.37
-19.75
-14.28
-8.21
-2.73
1.30
3.53
4.04
3.20
1.48
-0.63
-2.68
-4.24
-4.99
-4.73
-3.49
-1.49
0.89
3.23
5.16
6.43
6.97
6.86
6.25
5.31
4.17
2.94
1.69
0.50
-0.53
-1.32
-1.82
-2.09
-2.33
-2.87
-4.02
-5.96
-8.57
-11.42
-13.81
-14.97
-14.34
-11.77
-7.62
-2.69
1.99
5.50
7.36
7.61
6.82
5.77
5.20
5.53
6.70
8.28
9.70
10.47
10.40
9.60
8.38
7.05
5.77
4.52
3.16
1.58
-0.28
-2.35
-4.50
-6.64
-8.81
-11.20
-14.01
-17.34
-20.99
-24.46
-27.01
-27.86
-26.45
-22.59
-16.58
-9.16
-1.38
5.65
10.97
14.02
14.79
13.76
11.82
10.02
9.23
9.90
11.97
14.97
18.20
20.95
22.68
23.13
22.30
20.39
17.72
14.57
11.20
7.81
4.60
1.80
-0.33
-1.58
-1.91
-1.49
-0.74
-0.14
-0.19
-1.18
-3.16
-5.91
-9.00
-11.80
-13.68
-14.12
-12.86
-10.02
-6.06
-1.62
2.64
6.25
9.04
11.07
12.50
13.50
14.13
14.40
14.26
13.70
12.74
11.45
9.88
8.13
6.29
4.49
2.87
1.57
0.63
0.04
-0.32
-0.62
-1.05
-1.79
-2.98
-4.64
-6.74
-9.14
-11.71
-14.27
-16.66
-18.66
-19.97
-20.30
-19.37
-17.14
-13.81
-9.80
-5.62
-1.70
1.69
4.45
6.56
7.99
8.69
8.67
8.07
7.22
6.49
6.23
6.52
7.19
7.91
8.30
8.17
7.48
6.38
5.10
3.84
2.69
1.70
0.94
0.48
0.44
0.85
1.57
2.21
2.19
0.88
-2.15
-6.90
-12.86
-19.08
-24.39
-27.75
-28.45
-26.27
-21.49
-14.71
-6.84
1.14
8.25
13.69
16.93
17.88
16.81
14.39
11.40
8.59
6.50
5.41
5.31
5.94
6.87
7.58
7.59
6.55
4.39
1.29
-2.32
-5.98
-9.33
-12.19
-14.59
-16.60
-18.27
-19.54
-20.29
-20.38
-19.76
-18.37
-16.20
-13.27
-9.73
-5.95
-2.52
-0.12
0.71
-0.21
-2.55
-5.58
-8.38
-10.09
-10.17
-8.42
-4.97
-0.11
5.68
11.84
17.68
22.39
25.25
25.72
23.72
19.68
14.53
9.39
5.27
2.76
1.87
2.16
2.97
3.76
4.22
4.28
3.99
3.36
2.29
0.65
-1.63
-4.53
-7.88
-11.44
-14.91
-17.96
-20.19
-21.19
-20.74
-18.79
-15.69
-11.99
-8.34
-5.26
-3.00
-1.54
-0.60
0.13
0.91
1.83
2.85
3.78
4.46
4.76
4.65
4.28
3.84
3.48
3.18
2.75
1.85
0.23
-2.18
-5.20
-8.46
-11.60
-14.31
-16.29
-17.19
-16.56
-13.97
-9.31
-2.99
4.01
10.45
15.30
18.09
18.98
18.61
17.63
16.51
15.45
14.60
14.07
14.09
14.78
16.04
17.57
18.89
19.63
19.61
18.89
17.68
16.27
14.95
13.93
13.37
13.29
13.60
14.08
14.44
14.49
14.14
13.44
12.57
11.74
11.09
10.70
10.56
10.53
10.37
9.71
8.11
5.14
0.55
-5.71
-13.34
-21.84
-30.47
-38.41
-44.84
-49.06
-50.58
-49.20
-45.06
-38.63
-30.63
-21.81
-12.90
-4.48
3.04
9.35
14.25
17.68
19.82
21.01
21.75
22.42
23.17
23.78
23.85
23.00
21.15
18.58
15.85
13.53
11.96
11.10
10.66
10.33
9.88
9.30
8.60
7.74
6.61
5.09
3.27
1.52
0.33
0.13
0.98
2.47
3.89
4.47
3.66
1.32
-2.24
-6.41
-10.39
-13.32
-14.53
-13.66
-10.80
-6.60
-1.98
2.16
5.23
7.16
8.23
8.86
9.36
9.85
10.33
10.81
11.40
12.21
13.24
14.31
15.05
15.06
14.13
12.31
9.88
7.19
4.48
1.80
-1.05
-4.36
-8.44
-13.46
-19.36
-25.77
-32.05
-37.36
-40.83
-41.78
-39.96
-35.70
-29.88
-23.69
-18.26
-14.35
-12.14
-11.28
-11.16
-11.10
-10.61
-9.43
-7.56
-5.19
-2.64
-0.30
1.45
2.43
2.64
2.31
1.78
1.33
1.12
1.16
1.42
1.86
2.51
3.39
4.46
5.64
6.82
7.89
8.78
9.47
9.94
10.19
10.16
9.75
8.85
7.31
5.06
2.19
-1.08
-4.39
-7.38
-9.79
-11.49
-12.43
-12.60
-11.87
-10.13
-7.32
-3.64
0.47
4.33
7.29
8.96
9.33
8.80
8.03
7.64
7.95
8.89
10.05
10.95
11.25
10.87
10.02
8.97
7.89
6.79
5.57
4.13
2.48
0.76
-0.81
-2.05
-2.85
-3.23
-3.32
-3.34
-3.53
-4.14
-5.37
-7.28
-9.84
-12.91
-16.19
-19.22
-21.44
-22.28
-21.34
-18.64
-14.67
-10.26
-6.32
-3.46
-1.76
-0.89
-0.30
0.46
1.50
2.62
3.40
3.51
2.87
1.69
0.44
-0.30
-0.07
1.43
4.13
7.64
11.32
14.41
16.27
16.52
15.18
12.66
9.55
6.44
3.76
1.60
-0.17
-1.80
-3.53
-5.47
-7.64
-9.97
-12.40
-14.81
-16.99
-18.59
-19.21
-18.48
-16.28
-12.78
-8.38
-3.56
1.32
6.08
10.70
15.11
19.08
22.16
23.82
23.68
21.71
18.31
14.19
10.12
6.74
4.40
3.23
3.21
4.22
6.02
8.25
10.33
11.65
11.80
10.69
8.67
6.29
4.09
2.34
0.95
-0.39
-1.97
-3.85
-5.77
-7.26
-7.84
-7.19
-5.34
-2.61
0.52
3.58
6.21
8.25
9.63
10.31
10.16
9.07
6.99
4.03
0.54
-2.95
-5.82
-7.48
-7.47
-5.67
-2.35
1.79
5.82
8.85
10.32
10.15
8.71
6.58
4.24
1.91
-0.41
-2.81
-5.28
-7.63
-9.56
-10.82
-11.24
-10.64
-8.83
-5.64
-1.12
4.18
9.19
12.64
13.59
11.91
8.38
4.31
0.82
-1.63
-3.42
-5.47
-8.60
-13.06
-18.34
-23.36
-26.88
-28.01
-26.44
-22.60
-17.44
-12.20
-7.96
-5.32
-4.24
-4.06
-3.92
-3.04
-1.09
1.75
4.90
7.57
9.00
8.66
6.39
2.58
-1.84
-5.56
-7.28
-6.15
-2.18
3.72
10.11
15.55
19.14
20.71
20.66
19.59
17.90
15.76
13.26
10.64
8.50
7.52
8.24
10.57
13.75
16.36
16.82
13.86
6.97
-3.34
-15.72
-28.31
-39.28
-47.29
-51.76
-52.83
-51.17
-47.63
-43.14
-38.48
-34.35
-31.26
-29.38
-28.51
-28.01
-27.01
-24.67
-20.52
-14.70
-7.90
-1.20
4.38
8.17
10.08
10.61
10.59
10.85
11.91
13.81
16.21
18.62
20.66
22.22
23.40
24.38
25.17
25.60
25.36
24.16
21.92
18.86
15.48
12.33
9.85
8.20
7.17
6.42
5.54
4.31
2.70
0.84
-1.14
-3.10
-4.91
-6.31
-6.91
-6.23
-3.97
-0.17
4.72
9.88
14.51
18.01
20.15
21.05
21.00
20.30
19.17
17.67
15.79
13.54
10.97
8.19
5.35
2.59
0.03
-2.22
-4.00
-5.14
-5.42
-4.76
-3.27
-1.29
0.64
1.86
1.76
-0.12
-3.97
-9.70
-16.88
-24.84
-32.73
-39.73
-45.11
-48.35
-49.00
-46.67
-41.02
-31.97
-19.92
-6.05
7.77
19.36
26.82
29.13
26.53
20.39
12.83
6.04
1.64
0.39
2.11
5.96
10.77
15.46
19.21
21.49
22.06
20.87
18.07
14.02
9.24
4.32
-0.27
-4.30
-7.86
-11.29
-14.88
-18.68
-22.32
-25.06
-26.00
-24.43
-20.17
-13.64
-5.82
2.02
8.66
13.23
15.41
15.40
13.79
11.40
9.05
7.34
6.66
7.10
8.47
10.38
12.34
13.86
14.55
14.12
12.50
9.83
6.43
2.80
-0.51
-3.01
-4.41
-4.67
-4.03
-2.94
-1.97
-1.67
-2.43
-4.40
-7.42
-11.03
-14.54
-17.19
-18.38
-17.74
-15.32
-11.46
-6.74
-1.85
2.60
6.17
8.70
10.26
11.12
11.57
11.85
12.03
12.07
11.91
11.57
11.11
10.64
10.22
9.86
9.47
8.96
8.18
7.12
5.73
4.10
2.38
0.71
-0.79
-2.09
-3.27
-4.46
-5.72
-7.08
-8.47
-9.85
-11.18
-12.40
-13.38
-13.85
-13.46
-11.92
-9.21
-5.65
-1.80
1.68
4.33
6.01
6.87
7.24
7.44
7.60
7.72
7.76
7.67
7.55
7.52
7.68
8.03
8.46
8.75
8.81
8.63
8.39
8.32
8.55
9.02
9.44
9.39
8.54
6.71
4.03
0.84
-2.41
-5.27
-7.47
-8.94
-9.81
-10.34
-10.79
-11.34
-11.94
-12.35
-12.12
-10.88
-8.39
-4.78
-0.47
3.93
7.86
10.96
13.16
14.57
15.37
15.67
15.50
14.85
13.79
12.52
11.33
10.51
10.20
10.34
10.64
10.69
10.12
8.76
6.71
4.31
1.94
-0.09
-1.76
-3.24
-4.80
-6.66
-8.80
-11.03
-13.09
-14.81
-16.12
-17.12
-17.85
-18.25
-18.13
-17.32
-15.81
-13.83
-11.84
-10.22
-9.10
-8.18
-6.86
-4.55
-1.02
3.40
7.92
11.61
13.75
14.14
13.07
11.11
8.83
6.59
4.54
2.63
0.83
-0.84
-2.28
-3.38
-4.11
-4.53
-4.74
-4.86
-4.93
-4.88
-4.59
-4.02
-3.25
-2.55
-2.33
-2.90
-4.40
-6.57
-8.85
-10.52
-11.00
-10.04
-7.84
-4.88
-1.79
0.97
3.14
4.71
5.80
6.50
6.88
7.01
6.95
6.81
6.72
6.77
6.98
7.26
7.51
7.58
7.39
6.90
6.16
5.27
4.35
3.49
2.67
1.85
0.92
-0.10
-1.13
-1.97
-2.46
-2.61
-2.61
-2.77
-3.42
-4.78
-6.88
-9.60
-12.68
-15.77
-18.42
-20.14
-20.53
-19.40
-16.90
-13.51
-9.90
-6.73
-4.41
-3.05
-2.50
-2.47
-2.64
-2.78
-2.74
-2.39
-1.64
-0.43
1.24
3.23
5.31
7.20
8.60
9.32
9.29
8.52
7.13
5.30
3.25
1.26
-0.39
-1.44
-1.77
-1.49
-0.84
-0.15
0.29
0.30
-0.22
-1.36
-3.15
-5.58
-8.41
-11.17
-13.19
-13.87
-12.99
-10.75
-7.82
-5.02
-2.96
-1.79
-1.21
-0.67
0.32
1.93
3.98
6.08
7.82
8.92
9.30
8.97
7.98
6.41
4.44
2.34
0.55
-0.47
-0.42
0.71
2.61
4.72
6.43
7.28
7.07
5.89
4.13
2.25
0.70
-0.26
-0.62
-0.58
-0.47
-0.64
-1.34
-2.60
-4.30
-6.13
-7.73
-8.71
-8.78
-7.83
-5.94
-3.41
-0.66
1.86
3.86
5.21
6.01
6.45
6.70
6.81
6.77
6.45
5.80
4.90
3.91
3.09
2.64
2.59
2.82
3.10
3.19
2.94
2.32
1.38
0.18
-1.25
-2.85
-4.57
-6.31
-7.91
-9.27
-10.33
-11.19
-12.02
-12.99
-14.18
-15.46
-16.57
-17.10
-16.68
-15.07
-12.28
-8.68
-4.83
-1.37
1.23
2.79
3.42
3.43
3.13
2.72
2.34
2.03
1.88
1.97
2.41
3.23
4.34
5.55
6.55
7.04
6.83
5.89
4.41
2.74
1.28
0.34
0.04
0.28
0.75
1.06
0.85
-0.13
-1.89
-4.17
-6.50
-8.25
-8.88
-8.09
-5.95
-2.86
0.55
3.67
6.09
7.61
8.24
8.07
7.26
5.92
4.21
2.32
0.47
-1.10
-2.11
-2.27
-1.28
1.04
4.69
9.29
14.14
18.26
20.66
20.60
17.81
12.53
5.48
-2.39
-10.07
-16.67
-21.53
-24.29
-24.87
-23.45
-20.48
-16.51
-12.19
-8.11
-4.74
-2.36
-1.03
-0.59
-0.79
-1.33
-1.99
-2.61
-3.08
-3.33
-3.29
-2.93
-2.30
-1.49
-0.65
0.21
1.14
2.36
4.02
6.12
8.41
10.34
11.32
10.79
8.51
4.61
-0.43
-5.84
-10.75
-14.39
-16.30
-16.40
-14.97
-12.52
-9.52
-6.27
-2.83
0.73
4.23
7.17
8.92
8.93
7.07
3.67
-0.51
-4.52
-7.57
-9.15
-9.11
-7.55
-4.75
-1.11
2.94
6.81
9.91
11.67
11.68
9.80
6.26
1.57
-3.58
-8.46
-12.50
-15.36
-16.90
-17.21
-16.54
-15.29
-13.96
-13.08
-13.03
-13.90
-15.37
-16.77
-17.24
-16.12
-13.09
-8.45
-2.99
2.18
5.94
7.52
6.71
4.00
0.43
-2.71
-4.29
-3.64
-0.73
3.85
9.07
13.78
16.93
17.86
16.35
12.62
7.34
1.49
-3.75
-7.23
-8.18
-6.42
-2.51
2.36
6.73
9.30
9.32
6.65
1.72
-4.78
-12.08
-19.37
-25.83
-30.59
-32.86
-32.22
-28.76
-23.18
-16.56
-10.06
-4.52
-0.24
2.97
5.55
7.92
10.19
12.15
13.35
13.46
12.43
10.57
8.39
6.33
4.56
2.95
1.15
-1.13
-3.95
-7.12
-10.28
-13.09
-15.39
-17.24
-18.84
-20.41
-22.09
-23.90
-25.79
-27.69
-29.53
-31.07
-31.86
-31.16
-28.10
-21.99
-12.69
-0.89
11.88
23.59
32.16
36.19
35.37
30.62
23.80
17.09
12.33
10.47
11.45
14.42
18.26
22.07
25.50
28.82
32.69
37.83
44.67
53.16
62.66
72.05
79.94
84.86
85.58
81.24
71.63
57.20
39.21
19.50
0.20
-16.85
-30.49
-40.51
-47.45
-52.12
-55.10
-56.48
-55.97
-53.32
-48.70
-42.74
-36.29
-29.93
-23.62
-16.79
-8.74
0.82
11.45
22.06
31.34
38.26
42.48
44.34
44.56
43.93
42.94
41.72
40.20
38.26
35.98
33.56
31.23
29.08
26.97
24.58
21.59
17.91
13.74
9.49
5.56
2.11
-1.05
-4.36
-8.28
-13.04
-18.48
-24.01
-28.83
-32.10
-33.26
-32.12
-28.98
-24.48
-19.39
-14.37
-9.85
-6.01
-2.95
-0.77
0.45
0.74
0.40
-0.06
-0.08
0.58
1.69
2.63
2.66
1.46
-0.62
-2.60
-3.31
-1.93
1.49
6.04
10.29
12.87
13.03
10.84
6.99
2.34
-2.54
-7.61
-13.17
-19.53
-26.58
-33.68
-39.87
-44.29
-46.61
-47.30
-47.37
-47.93
-49.72
-52.83
-56.65
-60.16
-62.13
-61.30
-56.50
-46.77
-31.75
-12.10
10.28
32.41
51.08
63.87
69.98
70.31
66.66
60.70
53.14
43.85
32.62
20.14
8.48
0.50
-1.25
4.15
15.49
29.87
43.74
54.21
59.65
59.82
55.41
47.55
37.42
26.26
15.33
5.91
-0.97
-4.76
-5.66
-4.58
-2.84
-1.67
-1.85
-3.51
-6.16
-9.07
-11.52
-13.06
-13.59
-13.32
-12.65
-12.00
-11.72
-12.01
-12.89
-14.19
-15.60
-16.74
-17.34
-17.29
-16.73
-15.93
-15.21
-14.81
-14.81
-15.07
-15.40
-15.54
-15.35
-14.74
-13.70
-12.24
-10.43
-8.37
-6.24
-4.15
-2.06
0.28
3.24
7.11
11.85
17.00
21.76
25.27
26.91
26.52
24.36
20.95
16.96
12.98
9.57
7.10
5.74
5.34
5.44
5.43
4.75
3.18
0.87
-1.61
-3.48
-4.00
-2.69
0.47
4.92
9.54
12.90
13.70
11.34
6.25
-0.18
-6.09
-10.01
-11.40
-10.88
-9.78
-9.46
-10.64
-13.24
-16.66
-20.18
-23.36
-26.05
-28.20
-29.57
-29.65
-27.81
-23.49
-16.34
-6.18
7.09
23.36
42.02
61.61
79.61
92.83
98.14
93.53
78.71
55.32
26.31
-4.88
-35.19
-62.24
-84.38
-100.37
-109.29
-110.67
-104.74
-92.58
-75.85
-56.37
-35.53
-14.17
7.22
28.00
46.94
62.24
72.00
74.92
70.95
61.38
48.51
34.94
22.81
13.32
6.56
1.80
-2.13
-6.35
-11.56
-17.89
-24.92
-31.91
-38.06
-42.71
-45.52
-46.41
-45.53
-43.13
-39.46
-34.77
-29.28
-23.19
-16.68
-9.90
-3.02
3.75
10.21
16.12
21.30
25.59
28.87
31.14
32.48
33.16
33.53
33.98
34.75
35.77
36.68
36.90
35.82
33.11
28.83
23.40
17.48
11.73
6.56
2.09
-1.83
-5.46
-8.97
-12.41
-15.58
-18.20
-19.95
-20.58
-19.94
-18.02
-14.93
-10.94
-6.40
-1.75
2.56
6.18
8.86
10.49
11.00
10.42
8.86
6.56
3.90
1.30
-0.91
-2.55
-3.62
-4.21
-4.35
-3.97
-2.88
-0.96
1.81
5.18
8.79
12.15
14.86
16.63
17.30
16.86
15.48
13.45
11.16
8.92
6.92
5.17
3.63
2.37
1.54
1.35
1.80
2.52
2.73
1.51
-1.93
-7.87
-16.05
-25.72
-35.94
-45.82
-54.64
-61.87
-67.23
-70.64
-72.26
-72.57
-72.14
-71.54
-70.96
-70.11
-68.17
-64.02
-56.68
-45.65
-31.21
-14.35
3.49
20.79
36.32
49.20
58.90
65.12
67.78
67.06
63.58
58.41
53.01
48.82
46.89
47.56
50.42
54.53
58.81
62.36
64.60
65.23
64.11
61.16
56.40
50.02
42.42
34.15
25.72
17.47
9.42
1.41
-6.73
-14.93
-22.75
-29.39
-33.95
-35.63
-34.05
-29.34
-22.32
-14.35
-7.25
-2.81
-2.34
-6.20
-13.63
-22.95
-32.01
-38.84
-42.22
-41.69
-37.46
-30.01
-19.94
-8.05
4.54
16.26
25.43
30.73
31.71
28.98
24.00
18.46
13.72
10.35
8.23
6.82
5.56
4.15
2.58
1.04
-0.24
-1.03
-1.24
-0.92
-0.29
0.19
-0.03
-1.49
-4.43
-8.68
-13.62
-18.33
-21.89
-23.56
-23.09
-20.73
-17.19
-13.47
-10.56
-9.24
-9.82
-12.05
-15.23
-18.38
-20.47
-20.74
-18.84
-15.04
-10.13
-5.24
-1.50
0.34
0.16
-1.45
-3.53
-5.11
-5.62
-5.05
-3.84
-2.60
-1.79
-1.60
-1.97
-2.69
-3.53
-4.28
-4.76
-4.85
-4.48
-3.70
-2.67
-1.41
0.19
2.53
6.06
11.05
17.31
24.14
30.54
35.52
38.49
39.40
38.63
36.74
34.19
31.26
28.09
24.78
21.57
18.78
16.82
15.99
16.39
17.76
19.42
20.32
19.24
15.09
7.27
-4.05
-17.84
-32.49
-46.09
-57.00
-64.10
-67.08
-66.27
-62.56
-57.03
-50.81
-44.84
-39.77
-35.91
-33.27
-31.57
-30.36
-29.19
-27.69
-25.67
-23.26
-20.71
-18.41
-16.64
-15.49
-14.81
-14.29
-13.65
-12.76
-11.72
-10.66
-9.68
-8.75
-7.65
-6.20
-4.30
-2.08
0.23
2.39
4.25
5.77
6.99
7.97
8.79
9.59
10.59
12.02
14.04
16.62
19.49
22.21
24.33
25.46
25.35
23.92
21.25
17.56
13.27
8.90
4.99
1.95
-0.11
-1.32
-1.94
-2.22
-2.18
-1.67
-0.55
1.16
3.09
4.63
5.16
4.30
2.08
-1.03
-4.22
-6.51
-6.99
-5.01
-0.42
6.34
14.27
22.06
28.42
32.48
33.98
33.23
30.84
27.44
23.56
19.51
15.59
12.08
9.20
7.07
5.51
4.20
2.75
0.92
-1.28
-3.61
-5.79
-7.73
-9.53
-11.53
-14.03
-17.08
-20.39
-23.25
-24.87
-24.62
-22.29
-18.27
-13.31
-8.26
-3.74
0.06
3.30
6.26
9.03
11.46
13.23
14.08
13.94
13.04
11.73
10.34
9.03
7.82
6.63
5.43
4.20
3.01
1.94
1.06
0.41
-0.02
-0.31
-0.59
-1.00
-1.62
-2.45
-3.42
-4.42
-5.37
-6.27
-7.06
-7.66
-7.89
-7.55
-6.48
-4.68
-2.28
0.45
3.24
5.81
7.97
9.55
10.46
10.72
10.47
9.99
9.56
9.42
9.62
10.06
10.48
10.62
10.21
9.08
7.17
4.55
1.37
-2.10
-5.61
-9.03
-12.27
-15.28
-17.85
-19.54
-19.72
-17.83
-13.66
-7.63
-0.70
5.90
11.05
14.10
15.05
14.44
13.28
12.69
13.66
16.75
21.83
28.08
34.11
38.32
39.39
36.67
30.37
21.43
11.26
1.36
-7.04
-13.12
-16.60
-17.69
-16.99
-15.37
-13.74
-12.89
-13.23
-14.75
-16.95
-19.09
-20.30
-19.95
-17.73
-13.87
-9.02
-4.16
-0.39
1.33
0.45
-3.00
-8.40
-14.69
-20.68
-25.40
-28.27
-29.20
-28.44
-26.41
-23.58
-20.39
-17.29
-14.69
-12.93
-12.15
-12.22
-12.81
-13.48
-13.84
-13.70
-13.09
-12.21
-11.41
-11.06
-11.43
-12.57
-14.26
-16.05
-17.36
-17.70
-16.77
-14.59
-11.37
-7.50
-3.43
0.33
3.31
5.10
5.51
4.66
3.00
1.21
-0.04
-0.35
0.29
1.55
2.87
3.80
4.07
3.77
3.22
2.76
2.61
2.67
2.63
2.06
0.64
-1.71
-4.83
-8.33
-11.72
-14.46
-16.12
-16.41
-15.28
-12.95
-9.85
-6.51
-3.32
-0.50
2.01
4.40
6.83
9.30
11.66
13.63
14.97
15.59
15.53
14.97
14.07
12.91
11.52
9.87
7.94
5.81
3.66
1.72
0.22
-0.67
-1.00
-1.05
-1.30
-2.32
-4.52
-7.96
-12.19
-16.35
-19.36
-20.23
-18.48
-14.24
-8.22
-1.48
4.98
10.52
14.96
18.52
21.56
24.27
26.45
27.66
27.35
25.24
21.46
16.55
11.21
6.06
1.39
-2.75
-6.39
-9.41
-11.48
-12.13
-11.08
-8.46
-4.89
-1.34
1.18
1.93
0.62
-2.53
-6.95
-11.83
-16.33
-19.67
-21.30
-20.96
-18.79
-15.31
-11.24
-7.29
-3.99
-1.49
0.34
1.77
2.99
3.96
4.43
4.09
2.82
0.80
-1.43
-3.20
-4.02
-3.76
-2.82
-1.95
-2.01
-3.75
-7.52
-13.11
-19.59
-25.38
-28.47
-27.04
-20.14
-8.21
6.96
22.72
36.60
47.00
53.63
57.26
59.01
59.90
60.45
60.86
61.20
61.52
61.84
61.98
61.56
60.20
57.77
54.55
51.12
48.02
45.22
42.02
37.20
29.53
18.43
4.34
-11.24
-26.22
-38.56
-46.81
-50.47
-49.96
-46.32
-40.94
-35.21
-30.29
-26.88
-25.06
-24.28
-23.58
-21.92
-18.66
-13.81
-8.08
-2.66
1.26
2.92
2.17
-0.42
-3.87
-7.05
-9.01
-9.23
-7.67
-4.81
-1.49
1.37
2.93
2.71
0.66
-2.94
-7.57
-12.67
-17.70
-22.18
-25.70
-27.95
-28.83
-28.50
-27.43
-26.17
-25.25
-24.95
-25.25
-25.89
-26.46
-26.45
-25.37
-22.78
-18.37
-12.15
-4.55
3.69
11.60
18.32
23.29
26.42
27.88
28.06
27.30
25.87
23.96
21.80
19.69
18.01
17.13
17.31
18.58
20.72
23.30
25.71
27.28
27.44
25.81
22.35
17.41
11.61
5.73
0.48
-3.79
-7.10
-9.82
-12.45
-15.42
-18.95
-22.96
-27.08
-30.68
-32.99
-33.31
-31.23
-26.79
-20.56
-13.47
-6.53
-0.53
4.20
7.70
10.24
12.07
13.33
13.93
13.81
12.97
11.58
9.97
8.51
7.49
7.05
7.16
7.59
8.03
8.15
7.76
6.84
5.56
4.17
2.92
1.98
1.37
1.05
0.91
0.76
0.35
-0.71
-2.76
-5.97
-10.06
-14.32
-17.70
-19.22
-18.35
-15.21
-10.55
-5.41
-0.75
2.94
5.68
7.85
9.92
12.12
14.31
16.04
16.81
16.30
14.62
12.25
9.84
7.95
6.78
6.12
5.50
4.48
2.80
0.60
-1.69
-3.58
-4.72
-5.06
-4.93
-4.86
-5.41
-6.87
-9.22
-12.13
-15.12
-17.66
-19.34
-19.87
-18.99
-16.58
-12.69
-7.58
-1.84
3.76
8.41
11.51
12.85
12.61
11.24
9.29
7.17
5.09
3.08
1.13
-0.77
-2.48
-3.85
-4.86
-5.73
-6.87
-8.68
-11.19
-13.89
-15.86
-16.18
-14.36
-10.63
-5.87
-1.22
2.32
4.24
4.47
3.23
0.85
-2.29
-5.64
-8.40
-9.55
-8.17
-3.86
3.04
11.38
19.66
26.45
30.91
33.02
33.35
32.85
32.36
32.45
33.24
34.53
35.84
36.54
36.03
33.90
30.08
24.84
18.62
11.78
4.50
-3.23
-11.16
-18.63
-24.47
-27.40
-26.66
-22.56
-16.53
-10.71
-7.11
-6.87
-10.00
-15.50
-21.95
-28.00
-32.68
-35.42
-35.94
-34.12
-30.08
-24.22
-17.20
-9.89
-3.08
2.72
7.44
11.39
15.03
18.74
22.56
26.13
28.85
30.07
29.49
27.26
23.99
20.52
17.55
15.33
13.66
11.99
9.78
6.70
2.76
-1.82
-6.76
-11.83
-16.90
-21.81
-26.41
-30.41
-33.49
-35.31
-35.55
-33.95
-30.45
-25.23
-18.78
-11.76
-4.93
1.12
5.94
9.29
10.95
10.70
8.34
3.89
-2.30
-9.44
-16.47
-22.39
-26.57
-28.90
-29.77
-29.85
-29.78
-29.97
-30.46
-30.94
-30.91
-29.82
-27.26
-22.98
-16.91
-9.14
0.07
10.20
20.46
29.87
37.46
42.56
45.03
45.35
44.37
43.03
41.99
41.47
41.32
41.29
41.20
41.03
40.78
40.29
39.14
36.72
32.52
26.43
18.85
10.59
2.53
-4.62
-10.50
-14.95
-17.86
-19.01
-18.18
-15.41
-11.27
-6.82
-3.33
-1.83
-2.67
-5.42
-9.12
-12.72
-15.39
-16.67
-16.33
-14.17
-9.97
-3.62
4.73
14.54
24.94
34.98
43.84
51.01
56.17
59.11
59.59
57.38
52.45
45.09
35.93
25.79
15.47
5.51
-3.83
-12.57
-20.80
-28.63
-36.05
-42.88
-48.80
-53.36
-56.13
-56.78
-55.27
-51.87
-47.26
-42.39
-38.23
-35.53
-34.58
-35.06
-36.12
-36.62
-35.50
-32.14
-26.50
-19.11
-10.90
-2.92
3.90
8.88
11.62
12.13
10.76
8.27
5.66
3.96
3.88
5.56
8.51
11.84
14.54
15.98
16.13
15.48
14.77
14.60
15.07
15.77
16.01
15.07
12.60
8.64
3.64
-1.72
-6.68
-10.45
-12.33
-11.81
-8.81
-3.78
2.32
8.29
13.03
15.89
16.79
16.14
14.55
12.63
10.76
9.13
7.71
6.38
4.99
3.45
1.72
-0.08
-1.76
-3.10
-3.95
-4.28
-4.17
-3.76
-3.27
-2.96
-3.17
-4.31
-6.69
-10.28
-14.56
-18.48
-20.69
-20.17
-16.56
-10.46
-3.27
3.38
8.20
10.59
10.69
9.10
6.47
3.34
0.10
-2.85
-5.01
-5.79
-4.87
-2.33
1.16
4.60
7.08
8.05
7.61
6.26
4.63
3.13
1.78
0.32
-1.55
-3.94
-6.70
-9.49
-11.91
-13.62
-14.41
-14.14
-12.79
-10.43
-7.25
-3.50
0.56
4.70
8.80
12.62
15.80
17.79
18.02
16.14
12.24
6.95
1.26
-3.77
-7.32
-9.10
-9.31
-8.56
-7.55
-6.83
-6.65
-6.99
-7.64
-8.40
-9.17
-10.06
-11.26
-12.94
-15.16
-17.68
-20.00
-21.46
-21.46
-19.62
-16.05
-11.29
-6.15
-1.45
2.21
4.65
6.03
6.74
7.17
7.65
8.32
9.22
10.26
11.27
12.11
12.63
12.75
12.47
11.79
10.73
9.35
7.75
6.06
4.40
2.91
1.62
0.46
-0.72
-2.19
-4.19
-6.91
-10.27
-13.92
-17.16
-19.21
-19.41
-17.53
-13.85
-9.03
-3.89
0.87
4.87
8.02
10.40
12.13
13.21
13.66
13.44
12.65
11.51
10.30
9.27
8.54
8.08
7.76
7.46
7.16
6.93
6.89
7.10
7.48
7.89
8.13
8.11
7.85
7.46
6.99
6.42
5.55
4.15
2.10
-0.49
-3.24
-5.54
-6.81
-6.66
-5.10
-2.53
0.43
3.14
5.15
6.36
6.88
6.91
6.63
6.16
5.58
4.97
4.44
4.07
3.86
3.78
3.73
3.64
3.46
3.13
2.58
1.70
0.38
-1.41
-3.57
-5.88
-7.97
-9.42
-9.86
-9.07
-7.12
-4.40
-1.58
0.52
1.32
0.64
-1.15
-3.25
-4.77
-5.09
-4.03
-1.92
0.68
3.20
5.33
6.99
8.32
9.45
10.36
10.90
10.83
10.00
8.50
6.67
5.01
3.97
3.75
4.25
5.11
5.87
6.21
5.99
5.30
4.33
3.20
1.92
0.40
-1.41
-3.53
-5.89
-8.37
-10.93
-13.49
-15.97
-18.12
-19.54
-19.81
-18.67
-16.12
-12.52
-8.50
-4.66
-1.44
1.02
2.89
4.47
5.97
7.49
8.88
9.91
10.41
10.32
9.81
9.21
8.84
8.82
9.08
9.27
9.04
8.18
6.77
5.17
3.81
3.01
2.79
2.85
2.76
2.19
1.09
-0.29
-1.55
-2.37
-2.64
-2.47
-2.12
-1.90
-2.06
-2.82
-4.27
-6.42
-9.11
-11.93
-14.29
-15.58
-15.43
-13.90
-11.52
-9.12
-7.41
-6.77
-7.02
-7.63
-7.96
-7.55
-6.38
-4.74
-3.04
-1.55
-0.35
0.68
1.66
2.55
3.18
3.32
2.85
1.87
0.63
-0.53
-1.42
-2.05
-2.66
-3.57
-5.04
-7.05
-9.28
-11.16
-12.09
-11.67
-9.84
-6.94
-3.52
-0.16
2.76
5.12
6.98
8.46
9.59
10.25
10.26
9.48
7.96
5.93
3.85
2.14
1.16
0.99
1.40
1.95
2.14
1.67
0.51
-1.02
-2.47
-3.42
-3.70
-3.47
-3.10
-2.95
-3.23
-3.88
-4.71
-5.48
-6.05
-6.43
-6.68
-6.73
-6.42
-5.53
-3.94
-1.72
0.90
3.63
6.28
8.77
11.06
12.92
13.91
13.46
11.15
6.97
1.45
-4.47
-9.67
-13.22
-14.70
-14.25
-12.66
-11.05
-10.56
-11.90
-15.05
-19.16
-22.81
-24.66
-24.01
-21.24
-17.68
-15.10
-14.91
-17.56
-22.39
-27.89
-32.27
-34.11
-32.70
-28.20
-21.41
-13.55
-5.93
0.37
4.77
7.40
9.14
11.26
14.87
20.38
27.09
33.48
37.77
38.81
36.64
32.56
28.56
26.50
27.42
31.25
37.00
43.10
47.89
49.91
48.26
42.91
34.89
26.19
19.19
15.75
16.53
20.62
25.97
30.22
31.54
29.01
22.59
12.85
0.65
-12.76
-25.82
-36.77
-44.09
-47.08
-46.17
-42.74
-38.53
-34.97
-32.69
-31.53
-30.85
-29.99
-28.51
-26.25
-23.24
-19.64
-15.70
-11.79
-8.43
-6.17
-5.44
-6.37
-8.69
-11.86
-15.31
-18.67
-21.82
-24.81
-27.64
-30.04
-31.42
-31.07
-28.39
-23.28
-16.18
-7.98
0.22
7.51
13.36
17.64
20.47
22.04
22.56
22.19
21.17
19.77
18.26
16.82
15.44
14.01
12.38
10.47
8.35
6.23
4.39
3.13
2.62
2.80
3.36
3.73
3.28
1.62
-1.22
-4.70
-7.90
-9.91
-10.07
-8.17
-4.45
0.51
5.99
11.19
15.43
18.22
19.42
19.31
18.52
17.71
17.38
17.64
18.23
18.69
18.54
17.50
15.54
12.82
9.66
6.41
3.42
0.85
-1.33
-3.49
-6.21
-10.07
-15.26
-21.36
-27.32
-31.71
-33.27
-31.36
-26.15
-18.54
-9.76
-0.99
6.84
13.19
17.86
20.91
22.62
23.36
23.49
23.21
22.61
21.63
20.31
18.80
17.33
16.04
14.84
13.39
11.27
8.27
4.50
0.49
-3.10
-5.69
-6.93
-6.83
-5.57
-3.38
-0.41
3.23
7.39
11.74
15.77
18.84
20.40
20.17
18.24
14.92
10.58
5.44
-0.45
-7.04
-14.04
-20.71
-26.04
-29.04
-29.20
-26.80
-22.87
-18.88
-16.12
-15.27
-16.18
-18.04
-19.84
-20.81
-20.63
-19.37
-17.31
-14.71
-11.65
-8.11
-4.07
0.52
5.72
11.57
18.04
24.88
31.54
37.21
41.07
42.44
41.05
36.96
30.36
21.51
10.64
-1.92
-15.66
-29.90
-43.92
-56.99
-68.46
-77.55
-83.40
-85.23
-82.79
-76.73
-68.84
-61.66
-57.67
-58.34
-63.50
-71.29
-78.84
-83.16
-82.24
-75.38
-63.36
-47.96
-31.42
-15.94
-3.42
4.75
7.97
6.86
3.38
0.55
1.41
7.71
18.92
32.29
44.12
51.49
53.68
52.16
49.57
47.95
47.66
47.46
45.51
40.46
32.04
20.92
8.33
-4.11
-14.34
-19.87
-18.48
-9.09
7.22
27.07
45.69
58.62
63.29
59.70
49.90
36.87
23.31
11.13
1.46
-4.97
-7.64
-6.51
-2.42
2.85
6.90
7.63
4.30
-1.89
-8.10
-10.93
-7.98
0.95
13.55
25.74
33.31
33.54
26.17
13.42
-1.09
-13.68
-21.78
-24.41
-21.95
-15.61
-7.02
2.03
9.67
14.04
13.74
8.30
-1.46
-13.48
-24.94
-33.03
-35.78
-32.55
-24.10
-12.30
0.65
12.80
22.90
30.61
36.27
40.48
43.82
46.59
48.89
50.76
52.29
53.62
54.77
55.57
55.55
54.13
50.89
45.76
39.21
32.11
25.51
20.23
16.65
14.60
13.60
12.96
12.04
10.21
6.91
1.69
-5.65
-14.86
-25.11
-35.13
-43.46
-48.86
-50.67
-49.01
-44.62
-38.61
-32.08
-25.80
-20.13
-15.08
-10.57
-6.54
-3.17
-0.71
0.61
0.72
-0.16
-1.60
-3.03
-3.91
-3.85
-2.79
-0.97
1.14
3.03
4.44
5.42
6.38
7.85
10.09
12.94
15.76
17.73
18.24
17.24
15.38
13.64
12.93
13.54
15.18
17.09
18.57
19.28
19.38
19.27
19.38
19.91
20.73
21.52
21.81
21.08
18.93
15.40
11.29
8.36
9.02
15.49
28.77
47.88
69.90
90.98
107.62
117.62
120.44
116.88
108.18
95.64
80.27
62.54
42.36
19.50
-5.42
-30.04
-50.15
-61.23
-60.93
-51.40
-39.67
-35.69
-48.54
-82.66
-135.96
-200.58
-265.70
-320.84
-358.38
-374.53
-369.07
-344.51
-304.96
-255.08
-199.28
-141.22
-83.89
-30.19
16.96
55.24
83.53
102.51
114.30
121.22
124.53
123.84
117.77
105.38
87.71
68.16
51.64
42.69
43.63
53.56
68.74
84.09
95.08
99.23
96.52
88.89
79.10
69.45
61.01
53.49
45.75
36.73
26.16
14.83
4.32
-3.72
-8.15
-8.75
-6.06
-1.05
5.31
12.16
18.61
23.59
25.90
24.57
19.34
11.00
1.24
-8.01
-15.29
-20.12
-22.90
-24.37
-25.02
-24.71
-22.88
-19.03
-13.17
-6.00
1.38
7.92
13.02
16.45
18.13
17.79
15.00
9.40
1.16
-8.83
-19.03
-27.77
-33.90
-37.07
-37.75
-36.74
-34.73
-31.89
-27.98
-22.68
-16.02
-8.67
-1.77
3.33
5.55
4.36
-0.08
-6.97
-15.01
-22.60
-28.11
-30.21
-28.10
-21.72
-11.69
0.80
14.22
26.83
36.81
42.52
42.80
37.46
27.68
16.01
5.73
-0.10
0.16
6.19
15.85
26.12
34.26
38.77
39.58
37.60
33.91
29.09
23.13
15.77
7.12
-1.97
-9.98
-15.27
-16.74
-14.34
-9.10
-2.73
2.93
6.49
7.27
5.34
1.24
-4.21
-10.20
-15.98
-20.84
-24.06
-24.90
-22.83
-17.80
-10.49
-2.35
4.68
8.82
9.08
5.73
0.22
-5.28
-8.70
-8.73
-5.24
0.81
7.80
14.03
18.24
19.91
19.28
17.07
14.18
11.38
9.06
7.23
5.60
3.68
1.00
-2.76
-7.55
-12.92
-17.98
-21.65
-23.04
-21.83
-18.46
-13.97
-9.52
-5.93
-3.38
-1.49
0.32
2.41
4.69
6.79
8.36
9.28
9.78
10.08
10.11
9.39
7.23
3.11
-2.87
-9.87
-16.56
-21.53
-23.78
-22.93
-19.25
-13.43
-6.41
0.77
7.08
11.68
14.16
14.60
13.67
12.40
11.86
12.85
15.69
20.09
25.30
30.26
33.92
35.33
33.94
29.64
22.84
14.50
5.89
-1.60
-6.78
-8.96
-8.06
-4.58
0.66
6.85
13.38
20.05
26.86
33.89
41.02
47.90
53.85
58.12
60.19
60.24
59.60
60.85
67.42
82.71
108.80
145.25
188.51
232.46
269.87
294.47
302.80
295.07
274.69
246.71
215.85
185.08
155.14
125.08
93.33
58.46
19.49
-24.20
-72.77
-125.28
-179.02
-229.37
-270.74
-298.41
-310.29
-307.67
-294.46
-275.50
-254.62
-233.78
-213.36
-193.23
-173.79
-156.26
-142.16
-132.23
-125.68
-120.15
-112.47
-99.90
-81.25
-57.55
-31.71
-7.43
12.38
26.68
36.59
44.58
53.04
63.04
73.82
83.22
88.74
88.53
81.95
69.59
52.78
33.18
12.49
-7.59
-25.26
-38.72
-46.50
-47.88
-43.30
-34.28
-23.19
-12.59
-4.55
-0.16
0.73
-0.64
-2.38
-2.76
-0.77
3.35
8.36
12.53
14.37
13.22
9.45
4.10
-1.44
-5.91
-8.42
-8.52
-6.28
-2.20
2.78
7.53
10.88
11.94
10.27
5.93
-0.54
-8.20
-15.90
-22.40
-26.73
-28.45
-27.83
-25.78
-23.64
-22.77
-24.05
-27.57
-32.45
-37.12
-39.81
-39.32
-35.57
-29.67
-23.55
-19.08
-17.27
-18.01
-20.24
-22.72
-24.67
-26.13
-27.68
-29.89
-32.70
-35.37
-36.74
-35.83
-32.35
-26.76
-20.00
-13.08
-6.72
-1.33
2.88
5.71
6.97
6.49
4.32
0.65
-4.14
-9.61
-15.26
-20.57
-24.94
-27.81
-28.89
-28.30
-26.54
-24.33
-22.30
-20.74
-19.53
-18.26
-16.55
-14.34
-11.96
-10.04
-9.09
-9.12
-9.54
-9.41
-7.98
-5.15
-1.49
2.14
5.26
8.16
11.80
17.23
24.91
34.33
44.19
52.96
59.48
63.39
65.11
65.56
65.70
66.21
67.31
68.75
69.90
69.89
67.74
62.49
53.37
40.07
22.92
2.94
-18.33
-39.16
-58.13
-74.32
-87.46
-97.69
-105.45
-111.31
-115.97
-120.21
-124.63
-129.31
-133.51
-135.64
-133.66
-125.71
-110.73
-88.84
-61.34
-30.47
0.93
29.96
54.35
73.06
86.75
97.62
108.61
122.13
138.83
157.10
173.69
185.08
188.97
184.98
174.36
158.92
140.08
118.70
95.53
72.03
50.46
33.22
21.62
14.88
10.31
4.48
-5.03
-18.41
-33.67
-47.84
-58.67
-65.63
-69.93
-73.52
-77.63
-82.03
-85.13
-84.89
-79.90
-70.18
-57.15
-43.06
-30.05
-19.57
-12.14
-7.53
-5.15
-4.34
-4.62
-5.63
-7.07
-8.61
-9.82
-10.20
-9.25
-6.68
-2.61
2.36
7.23
10.97
12.84
12.74
11.17
8.93
6.75
4.95
3.41
1.84
0.06
-1.79
-3.36
-4.31
-4.56
-4.36
-4.21
-4.57
-5.79
-7.99
-11.19
-15.25
-19.88
-24.49
-28.16
-29.85
-28.67
-24.36
-17.40
-8.98
-0.58
6.56
11.71
14.83
16.31
16.63
16.19
15.18
13.73
12.07
10.64
9.94
10.36
11.97
14.45
17.20
19.59
21.15
21.67
21.15
19.69
17.40
14.38
10.87
7.21
3.88
1.29
-0.37
-1.26
-1.77
-2.35
-3.30
-4.70
-6.43
-8.35
-10.38
-12.49
-14.73
-17.03
-19.15
-20.68
-21.05
-19.57
-15.58
-8.69
0.95
12.35
23.76
33.15
38.93
40.59
38.93
35.62
32.44
30.50
29.88
29.87
29.53
28.34
26.36
23.98
21.62
19.37
17.07
14.50
11.66
8.77
6.12
3.91
2.10
0.48
-1.16
-2.93
-4.76
-6.53
-8.09
-9.43
-10.52
-11.36
-11.90
-12.12
-12.01
-11.69
-11.35
-11.18
-11.26
-11.61
-12.15
-12.77
-13.34
-13.70
-13.60
-12.73
-10.80
-7.59
-3.06
2.64
9.27
16.43
23.56
29.86
34.40
36.30
35.00
30.54
23.62
15.39
7.18
0.13
-5.07
-8.23
-9.62
-9.81
-9.47
-9.21
-9.38
-10.09
-11.15
-12.22
-12.92
-13.07
-12.62
-11.70
-10.52
-9.32
-8.33
-7.66
-7.37
-7.45
-7.77
-8.15
-8.44
-8.50
-8.35
-8.13
-8.14
-8.78
-10.36
-12.94
-16.21
-19.46
-21.73
-22.09
-20.02
-15.59
-9.50
-2.81
3.45
8.56
12.28
14.80
16.46
17.58
18.31
18.64
18.54
18.04
17.29
16.57
16.18
16.31
16.97
17.97
19.00
19.75
20.11
20.15
20.12
20.22
20.48
20.75
20.75
20.27
19.32
18.07
16.78
15.58
14.34
12.77
10.54
7.52
3.90
0.05
-3.60
-6.82
-9.62
-12.20
-14.71
-17.09
-19.07
-20.28
-20.56
-20.04
-19.06
-17.99
-17.02
-16.08
-14.91
-13.39
-11.63
-10.05
-9.14
-9.25
-10.29
-11.79
-13.03
-13.30
-12.26
-9.96
-6.78
-3.31
-0.09
2.49
4.20
4.94
4.77
3.80
2.28
0.58
-0.95
-2.04
-2.60
-2.78
-2.83
-3.05
-3.61
-4.54
-5.67
-6.74
-7.48
-7.72
-7.52
-7.14
-6.99
-7.49
-8.92
-11.24
-14.05
-16.67
-18.28
-18.22
-16.17
-12.28
-7.08
-1.35
4.18
8.99
12.85
15.73
17.68
18.77
19.00
18.44
17.25
15.78
14.43
13.63
13.66
14.59
16.19
18.04
19.58
20.37
20.18
19.11
17.52
15.85
14.39
13.17
12.01
10.59
8.72
6.41
3.88
1.41
-0.76
-2.62
-4.29
-6.00
-7.98
-10.36
-13.18
-16.41
-19.86
-23.19
-25.94
-27.51
-27.43
-25.49
-21.90
-17.26
-12.39
-8.06
-4.73
-2.46
-0.97
0.11
1.09
2.08
2.99
3.63
3.87
3.67
3.09
2.29
1.47
0.80
0.44
0.51
1.06
2.09
3.56
5.30
7.06
8.53
9.38
9.51
9.09
8.59
8.59
9.49
11.24
13.25
14.52
14.10
11.47
6.78
0.82
-5.32
-10.56
-14.07
-15.33
-14.15
-10.65
-5.23
1.38
8.26
14.56
19.64
23.30
25.72
27.23
28.11
28.48
28.36
27.86
27.38
27.52
28.88
31.77
36.04
41.12
46.23
50.68
54.09
56.45
58.05
59.35
60.79
62.61
64.67
66.40
66.84
64.99
60.18
52.41
42.50
31.81
21.87
13.90
8.68
6.50
7.34
10.81
15.87
20.76
23.15
20.72
12.23
-1.81
-19.01
-35.77
-48.61
-55.45
-56.29
-53.04
-48.56
-45.38
-44.82
-46.75
-50.02
-53.33
-55.91
-57.75
-59.23
-60.57
-61.42
-60.99
-58.58
-54.31
-49.30
-45.35
-44.06
-46.02
-50.50
-55.84
-60.38
-63.16
-64.18
-64.02
-63.21
-61.58
-57.97
-50.47
-37.01
-16.22
11.71
44.66
79.10
111.26
138.65
161.05
180.39
199.55
220.55
243.23
265.04
281.93
290.00
286.90
272.36
248.06
217.05
183.31
151.31
125.60
110.03
106.85
115.93
134.53
157.88
180.38
197.01
204.48
201.79
190.10
172.11
151.12
130.06
110.80
93.66
77.46
59.98
38.79
12.10
-20.57
-57.90
-96.80
-132.86
-161.24
-178.32
-183.15
-178.74
-171.51
-169.20
-177.57
-197.45
-223.84
-247.68
-259.94
-255.85
-237.30
-212.20
-191.21
-183.55
-193.82
-221.07
-259.94
-303.00
-343.30
-376.11
-399.43
-413.38
-418.95
-416.67
-405.91
-385.09
-352.76
-308.48
-253.60
-191.12
-125.26
-60.98
-3.34
42.92
74.08
88.29
86.46
72.71
53.83
37.73
31.08
37.11
54.42
77.54
98.87
111.72
112.85
103.62
88.96
74.95
66.07
63.66
66.38
71.93
78.78
86.71
95.98
105.88
114.10
117.57
114.24
104.78
92.74
82.76
78.10
78.70
81.15
80.61
73.79
60.86
45.66
33.85
30.27
36.71
51.45
70.18
87.68
99.59
102.80
95.29
75.44
42.04
-4.57
-60.90
-119.23
-168.75
-198.67
-202.56
-181.22
-142.69
-98.77
-59.71
-29.98
-7.22
15.06
42.82
77.70
116.15
151.64
178.25
193.59
198.98
197.54
191.63
181.52
165.71
143.15
115.15
85.73
60.28
43.12
35.51
35.26
38.23
40.67
41.32
42.14
47.38
61.51
87.12
123.60
167.00
211.10
249.15
275.68
287.75
285.17
269.85
244.70
212.50
175.26
134.36
91.12
47.33
5.26
-33.11
-66.89
-96.86
-125.16
-154.23
-185.59
-219.06
-252.76
-283.67
-308.39
-323.74
-327.31
-318.16
-297.50
-269.05
-238.42
-211.49
-192.17
-180.82
-174.34
-167.82
-157.28
-141.48
-122.37
-103.59
-88.24
-77.28
-69.24
-61.45
-51.76
-39.78
-26.79
-14.75
-4.96
2.59
9.03
15.49
22.20
28.13
31.66
31.68
28.35
23.15
18.21
15.23
14.76
16.22
18.38
20.07
20.66
20.06
18.47
16.17
13.40
10.43
7.51
4.80
2.14
-1.00
-5.34
-11.45
-19.38
-28.52
-37.69
-45.40
-50.19
-51.01
-47.55
-40.45
-31.40
-22.81
-17.17
-16.26
-20.44
-28.46
-37.89
-46.03
-50.86
-51.66
-49.08
-44.61
-39.89
-36.10
-33.61
-32.14
-31.07
-29.87
-28.34
-26.58
-24.70
-22.54
-19.58
-15.10
-8.59
-0.20
9.21
18.28
25.68
30.49
32.54
32.22
30.28
27.50
24.43
21.42
18.50
15.57
12.42
8.89
5.12
1.60
-0.87
-1.45
0.35
4.35
9.61
14.82
18.67
20.34
19.70
17.23
13.80
10.33
7.59
6.04
5.81
6.74
8.40
10.29
12.03
13.48
14.73
15.96
17.23
18.39
19.12
19.10
18.22
16.66
14.79
12.97
11.40
10.11
9.01
8.06
7.33
6.99
7.16
7.87
8.89
9.85
10.34
10.00
8.60
6.11
2.56
-1.89
-7.10
-12.84
-18.80
-24.44
-29.10
-32.01
-32.66
-30.96
-27.34
-22.65
-17.88
-13.69
-10.26
-7.30
-4.30
-0.91
2.89
6.71
9.95
12.11
12.92
12.50
11.22
9.64
8.23
7.29
6.86
6.80
6.85
6.81
6.60
6.28
5.96
5.78
5.76
5.91
6.20
6.65
7.24
7.90
8.44
8.65
8.29
7.28
5.73
3.89
2.00
0.22
-1.47
-3.22
-5.13
-7.09
-8.74
-9.51
-8.98
-6.95
-3.70
0.14
3.81
6.65
8.31
8.85
8.60
8.03
7.54
7.39
7.61
8.05
8.48
8.66
8.43
7.81
7.05
6.58
6.81
7.93
9.81
11.93
13.63
14.35
13.91
12.57
10.76
8.91
7.16
5.35
3.10
0.11
-3.75
-8.48
-14.01
-20.32
-27.18
-33.93
-39.26
-41.42
-38.83
-30.71
-17.60
-1.19
16.21
32.48
46.19
56.71
63.98
68.17
69.53
68.44
65.55
61.67
57.57
53.59
49.39
44.21
37.17
27.87
16.70
4.93
-5.65
-13.13
-16.16
-14.34
-8.38
0.02
8.77
15.88
20.08
21.00
19.13
15.39
10.71
5.77
0.90
-3.74
-8.05
-11.85
-14.95
-17.26
-18.90
-20.06
-20.89
-21.33
-21.07
-19.73
-17.14
-13.48
-9.33
-5.46
-2.57
-1.04
-0.83
-1.51
-2.49
-3.13
-2.96
-1.77
0.33
2.95
5.55
7.56
8.58
8.40
7.11
5.01
2.54
0.19
-1.64
-2.79
-3.38
-3.71
-4.24
-5.31
-7.03
-9.32
-11.90
-14.52
-16.98
-19.20
-21.15
-22.85
-24.35
-25.74
-27.12
-28.46
-29.55
-29.97
-29.22
-26.99
-23.36
-18.81
-14.15
-10.15
-7.27
-5.55
-4.66
-4.15
-3.64
-2.98
-2.26
-1.66
-1.32
-1.21
-1.08
-0.55
0.71
2.88
5.79
9.03
12.00
14.13
15.07
14.69
13.13
10.69
7.70
4.55
1.61
-0.82
-2.49
-3.35
-3.47
-3.05
-2.33
-1.59
-1.06
-0.93
-1.30
-2.13
-3.22
-4.16
-4.54
-4.04
-2.61
-0.44
2.04
4.36
6.18
7.34
7.96
8.25
8.42
8.58
8.55
8.02
6.66
4.30
1.10
-2.46
-5.76
-8.20
-9.42
-9.42
-8.49
-7.09
-5.71
-4.76
-4.54
-5.23
-6.95
-9.67
-13.17
-16.99
-20.50
-22.96
-23.75
-22.55
-19.48
-15.01
-9.88
-4.79
-0.25
3.53
6.62
9.19
11.39
13.30
14.88
16.06
16.82
17.23
17.44
17.56
17.63
17.55
17.18
16.38
15.16
13.62
11.92
10.23
8.62
7.11
5.71
4.38
3.09
1.69
-0.06
-2.40
-5.45
-9.01
-12.51
-15.15
-16.15
-15.09
-12.06
-7.62
-2.56
2.39
6.80
10.49
13.44
15.65
17.00
17.23
16.04
13.17
8.58
2.54
-4.29
-10.89
-16.02
-18.52
-17.57
-12.98
-5.27
4.41
14.53
23.46
29.87
32.97
32.57
29.15
23.61
17.13
10.91
5.94
2.82
1.60
1.74
2.32
2.35
1.25
-0.93
-3.52
-5.59
-6.50
-6.15
-4.99
-3.64
-2.48
-1.49
-0.28
1.48
3.81
6.33
8.42
9.64
9.94
9.85
10.19
11.86
15.42
20.85
27.57
34.46
40.33
44.16
45.43
44.13
40.61
35.35
28.80
21.32
13.28
5.19
-2.25
-8.17
-11.85
-12.91
-11.63
-8.88
-5.90
-3.89
-3.57
-5.02
-7.77
-11.11
-14.39
-17.25
-19.65
-21.59
-22.99
-23.60
-23.08
-21.23
-18.09
-14.01
-9.53
-5.26
-1.66
0.95
2.50
3.12
3.11
2.86
2.80
3.23
4.27
5.74
7.17
8.01
7.70
5.97
2.97
-0.74
-4.32
-6.95
-8.17
-8.04
-7.10
-6.16
-5.97
-6.93
-8.99
-11.74
-14.52
-16.61
-17.35
-16.36
-13.83
-10.68
-8.45
-8.70
-12.19
-18.12
-24.21
-27.54
-25.87
-18.81
-8.01
3.56
12.84
18.04
19.07
17.38
15.13
14.28
16.06
20.74
27.73
35.90
43.87
50.22
53.73
53.59
49.52
41.94
31.94
21.14
11.36
4.10
0.12
-0.79
0.33
2.07
3.24
3.35
2.63
1.80
1.57
2.23
3.48
4.62
4.89
3.82
1.38
-2.04
-5.85
-9.35
-11.96
-13.22
-12.98
-11.49
-9.36
-7.45
-6.46
-6.75
-8.13
-10.13
-12.20
-14.04
-15.57
-16.81
-17.74
-18.18
-17.97
-17.10
-15.80
-14.39
-13.07
-11.81
-10.35
-8.50
-6.24
-3.88
-1.93
-0.84
-0.74
-1.39
-2.22
-2.56
-1.95
-0.21
2.52
5.84
9.32
12.52
15.08
16.70
17.22
16.57
14.84
12.17
8.89
5.36
2.02
-0.71
-2.53
-3.33
-3.30
-2.79
-2.26
-2.03
-2.14
-2.41
-2.46
-2.00
-0.97
0.49
1.98
3.06
3.37
2.66
0.90
-1.73
-4.88
-8.05
-10.61
-12.01
-11.89
-10.24
-7.46
-4.21
-1.22
0.93
2.00
2.14
1.77
1.33
1.14
1.28
1.65
2.05
2.36
2.49
2.46
2.24
1.81
1.15
0.30
-0.56
-1.15
-1.27
-0.85
-0.10
0.67
1.09
1.00
0.47
-0.24
-0.80
-1.02
-0.86
-0.39
0.23
0.93
1.64
2.30
2.82
3.09
3.00
2.44
1.35
-0.36
-2.71
-5.67
-9.01
-12.27
-14.83
-16.12
-15.82
-14.04
-11.30
-8.32
-5.69
-3.67
-2.19
-0.99
0.12
1.12
1.80
1.97
1.59
0.86
0.10
-0.37
-0.42
-0.07
0.47
1.06
1.60
2.04
2.38
2.50
2.22
1.32
-0.26
-2.37
-4.61
-6.42
-7.33
-7.16
-6.04
-4.42
-2.76
-1.41
-0.45
0.20
0.66
0.95
0.99
0.63
-0.26
-1.66
-3.50
-5.66
-7.93
-10.08
-11.80
-12.74
-12.67
-11.56
-9.70
-7.49
-5.42
-3.79
-2.71
-2.09
-1.75
-1.47
-1.13
-0.68
-0.14
0.39
0.84
1.18
1.45
1.83
2.45
3.38
4.45
5.33
5.67
5.30
4.38
3.31
2.57
2.40
2.82
3.63
4.65
5.82
7.16
8.65
9.99
10.68
10.13
8.03
4.44
-0.22
-5.36
-10.47
-15.27
-19.62
-23.38
-26.31
-28.06
-28.43
-27.51
-25.67
-23.50
-21.43
-19.62
-17.84
-15.71
-12.89
-9.34
-5.33
-1.37
1.92
4.07
4.81
4.12
2.21
-0.56
-3.76
-7.00
-9.92
-12.25
-13.74
-14.25
-13.74
-12.36
-10.39
-8.21
-6.04
-3.98
-1.89
0.40
2.94
5.60
8.08
10.03
11.20
11.51
10.96
9.58
7.42
4.56
1.22
-2.25
-5.42
-7.86
-9.33
-9.77
-9.32
-8.22
-6.71
-4.99
-3.20
-1.47
0.08
1.31
2.13
2.49
2.44
2.09
1.62
1.24
1.12
1.40
2.03
2.86
3.68
4.29
4.63
4.77
4.83
4.89
4.89
4.70
4.18
3.26
1.93
0.24
-1.77
-4.05
-6.48
-8.88
-11.00
-12.70
-14.00
-15.12
-16.42
-18.15
-20.25
-22.29
-23.59
-23.47
-21.57
-17.98
-13.18
-7.89
-2.81
1.59
5.07
7.65
9.45
10.63
11.24
11.31
10.89
10.11
9.22
8.55
8.33
8.63
9.27
9.89
10.15
9.95
9.44
9.03
9.08
9.72
10.72
11.56
11.69
10.78
8.90
6.36
3.64
1.07
-1.22
-3.36
-5.60
-8.20
-11.34
-15.04
-19.15
-23.30
-26.92
-29.39
-30.12
-28.76
-25.30
-20.03
-13.56
-6.59
0.15
6.09
10.83
14.17
16.11
16.88
16.85
16.48
16.14
16.07
16.33
16.85
17.55
18.36
19.25
20.18
21.07
21.77
22.09
21.94
21.32
20.28
18.86
16.98
14.48
11.23
7.32
3.09
-0.98
-4.39
-6.96
-8.80
-10.30
-12.01
-14.32
-17.44
-21.23
-25.24
-28.77
-31.04
-31.35
-29.35
-25.12
-19.25
-12.56
-5.95
-0.14
4.50
7.86
10.10
11.42
12.04
12.18
12.06
11.92
11.99
12.43
13.27
14.38
15.46
16.19
16.34
15.89
15.07
14.27
13.81
13.83
14.12
14.31
13.98
12.87
10.97
8.54
5.90
3.31
0.92
-1.29
-3.41
-5.57
-7.95
-10.77
-14.25
-18.42
-22.94
-26.97
-29.40
-29.12
-25.64
-19.26
-11.09
-2.63
4.80
10.49
14.43
17.08
19.00
20.51
21.62
22.18
22.11
21.52
20.71
20.07
19.82
19.99
20.34
20.51
20.18
19.27
17.90
16.39
15.08
14.14
13.55
13.03
12.26
10.95
9.07
6.77
4.36
2.08
0.02
-1.90
-3.87
-6.09
-8.71
-11.81
-15.43
-19.59
-24.16
-28.76
-32.64
-34.82
-34.31
-30.59
-23.89
-15.23
-6.17
1.80
7.73
11.52
13.70
15.11
16.42
17.84
19.21
20.20
20.62
20.57
20.34
20.28
20.49
20.81
20.85
20.27
18.92
17.01
15.03
13.48
12.64
12.38
12.22
11.53
9.82
6.98
3.35
-0.46
-3.81
-6.36
-8.12
-9.47
-10.88
-12.76
-15.32
-18.57
-22.38
-26.57
-30.80
-34.52
-36.89
-37.02
-34.27
-28.54
-20.45
-11.17
-2.01
5.96
12.18
16.55
19.21
20.34
20.09
18.66
16.46
14.12
12.35
11.74
12.51
14.40
16.83
19.08
20.52
20.82
19.92
18.06
15.51
12.56
9.41
6.11
2.79
-0.44
-3.34
-5.70
-7.40
-8.60
-9.67
-11.16
-13.47
-16.73
-20.57
-24.21
-26.60
-26.67
-23.66
-17.33
-8.13
2.89
14.27
24.47
32.24
36.91
38.47
37.48
34.81
31.36
27.90
24.91
22.65
21.19
20.44
20.20
20.16
19.93
19.13
17.47
14.86
11.48
7.70
4.01
0.81
-1.69
-3.48
-4.76
-5.80
-6.88
-8.17
-9.75
-11.63
-13.76
-16.10
-18.58
-21.14
-23.71
-26.29
-28.96
-31.85
-34.98
-38.13
-40.67
-41.73
-40.46
-36.39
-29.73
-21.28
-12.25
-3.75
3.47
9.21
13.67
17.10
19.67
21.39
22.22
22.27
21.89
21.57
21.74
22.54
23.66
24.46
24.18
22.30
18.81
14.37
10.11
7.23
6.51
7.86
10.25
11.93
11.12
6.78
-0.87
-10.37
-19.60
-26.57
-30.32
-31.21
-30.76
-31.06
-33.94
-40.36
-50.01
-61.27
-71.65
-78.45
-79.62
-74.41
-63.67
-49.57
-34.81
-21.90
-12.59
-7.64
-6.88
-9.38
-13.52
-17.52
-20.08
-21.11
-21.82
-23.85
-27.64
-31.03
-29.41
-17.63
6.94
42.44
82.61
119.50
146.98
163.22
170.63
173.51
175.21
176.50
175.96
171.84
163.77
153.02
141.43
129.95
117.78
103.00
84.04
60.98
35.95
12.38
-6.35
-18.17
-22.84
-21.70
-16.98
-11.18
-6.65
-5.32
-8.43
-16.17
-27.63
-40.90
-53.64
-63.74
-69.81
-71.44
-69.05
-63.73
-57.02
-50.55
-45.70
-43.18
-42.63
-42.90
-42.45
-40.15
-35.79
-30.14
-24.46
-19.88
-16.95
-15.70
-15.99
-17.83
-21.49
-27.21
-34.77
-43.23
-51.05
-56.54
-58.48
-56.53
-51.32
-44.10
-36.30
-28.93
-22.42
-16.65
-11.37
-6.56
-2.71
-0.63
-1.10
-4.39
-9.99
-16.74
-23.31
-28.70
-32.58
-35.26
-37.31
-39.09
-40.46
-40.80
-39.27
-35.22
-28.43
-19.32
-8.89
1.39
9.88
15.08
16.10
12.98
6.77
-0.70
-7.38
-11.47
-11.82
-8.14
-0.98
8.39
18.23
26.74
32.58
35.34
35.65
34.93
34.64
35.65
37.87
40.36
42.01
42.13
40.81
38.74
36.69
35.00
33.37
31.10
27.56
22.61
16.81
11.03
6.05
2.14
-0.97
-3.77
-6.58
-9.27
-11.29
-11.95
-10.88
-8.12
-4.11
0.60
5.61
10.76
16.02
21.27
26.08
29.72
31.37
30.32
26.37
19.98
12.18
4.35
-2.25
-6.79
-9.06
-9.51
-9.03
-8.71
-9.31
-11.03
-13.19
-14.44
-13.28
-8.77
-1.10
8.39
17.60
24.43
27.59
26.83
22.81
16.65
9.60
2.83
-2.53
-5.37
-4.95
-1.14
5.24
12.61
19.09
23.29
24.82
24.31
23.03
22.09
21.97
22.36
22.54
21.89
20.32
18.24
16.31
15.08
14.70
14.97
15.49
15.90
15.91
15.36
14.10
11.94
8.68
4.21
-1.47
-8.19
-15.61
-23.27
-30.54
-36.72
-41.14
-43.32
-43.11
-40.83
-37.18
-33.14
-29.62
-27.34
-26.62
-27.43
-29.38
-31.91
-34.34
-36.12
-36.86
-36.49
-35.20
-33.38
-31.44
-29.77
-28.68
-28.39
-28.98
-30.26
-31.69
-32.41
-31.51
-28.47
-23.56
-17.80
-12.71
-9.62
-9.18
-11.15
-14.53
-18.07
-20.73
-21.89
-21.36
-19.14
-15.31
-9.98
-3.40
3.92
11.18
17.47
22.01
24.40
24.64
23.12
20.39
16.99
13.39
9.95
7.04
4.98
3.98
4.07
5.00
6.36
7.63
8.42
8.56
8.18
7.61
7.15
6.96
6.86
6.47
5.25
2.74
-1.32
-6.92
-13.79
-21.46
-29.24
-36.33
-41.86
-45.05
-45.37
-42.72
-37.40
-30.11
-21.73
-13.19
-5.31
1.32
6.34
9.73
11.79
13.03
14.05
15.17
16.39
17.33
17.48
16.45
14.21
11.16
7.95
5.12
2.80
0.58
-2.41
-7.09
-14.01
-22.99
-33.09
-42.99
-51.44
-57.84
-62.54
-66.80
-72.50
-81.65
-95.83
-115.55
-139.81
-165.79
-189.25
-205.48
-210.67
-203.06
-183.53
-154.97
-121.04
-84.71
-47.35
-8.60
32.94
78.63
128.77
181.97
235.13
284.01
324.36
353.19
369.67
375.16
372.24
363.32
349.45
330.15
304.04
270.00
228.04
179.63
127.35
74.37
23.93
-20.88
-57.46
-84.11
-100.50
-108.04
-109.74
-109.63
-111.47
-117.70
-128.67
-142.71
-156.73
-167.46
-172.52
-171.09
-163.76
-151.90
-136.90
-119.56
-100.24
-79.18
-57.03
-34.92
-14.31
3.51
17.77
28.45
36.14
41.79
46.45
50.96
55.82
61.09
66.54
71.64
75.87
78.75
80.04
79.81
78.45
76.59
74.82
73.41
71.95
69.44
64.68
57.01
47.01
36.52
27.99
23.38
23.04
25.43
27.78
27.42
22.92
14.69
4.46
-5.74
-14.53
-21.58
-27.28
-32.08
-35.94
-38.48
-39.27
-38.50
-37.09
-36.43
-37.74
-41.46
-47.05
-53.22
-58.52
-61.91
-63.13
-62.67
-61.64
-61.33
-62.81
-66.73
-73.10
-81.32
-90.23
-98.38
-104.44
-107.55
-107.66
-105.52
-102.37
-99.46
-97.48
-96.38
-95.58
-94.28
-91.92
-88.34
-83.63
-77.79
-70.44
-60.99
-48.83
-33.81
-15.98
4.69
28.68
56.70
88.56
122.06
152.40
173.28
179.20
168.15
142.77
109.39
75.33
45.94
23.27
6.71
-5.00
-12.03
-13.37
-8.18
2.58
15.58
26.15
30.39
27.03
17.97
7.04
-1.75
-5.88
-4.76
0.78
9.21
18.96
28.56
36.64
42.03
44.05
42.73
38.68
32.71
25.31
16.52
6.19
-5.49
-17.64
-28.78
-37.40
-42.70
-44.89
-45.07
-44.54
-44.18
-44.08
-43.69
-42.22
-39.19
-34.71
-29.45
-24.36
-20.28
-17.62
-16.32
-16.09
-16.69
-18.07
-20.41
-23.93
-28.63
-34.29
-40.45
-46.53
-51.98
-56.28
-58.92
-59.50
-57.87
-54.23
-49.22
-43.77
-38.86
-35.23
-33.20
-32.68
-33.34
-34.71
-36.35
-37.69
-38.01
-36.43
-32.14
-24.82
-14.97
-3.86
6.81
15.57
21.70
25.43
27.64
29.34
31.23
33.53
36.08
38.69
41.25
43.72
45.95
47.55
47.95
46.62
43.35
38.43
32.65
27.06
22.73
20.41
20.30
21.97
24.48
26.69
27.77
27.44
26.11
24.48
23.16
22.26
21.46
20.30
18.61
16.71
15.27
14.92
15.86
17.80
20.11
22.15
23.51
23.97
23.44
21.79
18.97
15.12
10.75
6.65
3.74
2.65
3.44
5.56
7.97
9.50
9.27
6.96
2.90
-2.13
-7.17
-11.39
-14.28
-15.70
-15.77
-14.71
-12.70
-9.71
-5.59
-0.14
6.71
14.68
23.15
31.20
37.90
42.54
44.87
45.14
43.96
42.07
40.10
38.34
36.78
35.15
33.08
30.25
26.42
21.55
15.72
9.20
2.46
-3.92
-9.24
-12.83
-14.20
-13.12
-9.79
-4.75
1.13
6.94
11.87
15.49
17.79
19.01
19.50
19.36
18.43
16.33
12.64
7.12
-0.13
-8.75
-18.07
-27.24
-35.24
-41.08
-43.97
-43.51
-39.91
-33.88
-26.45
-18.64
-11.15
-4.28
1.93
7.50
12.27
15.96
18.28
19.19
18.96
18.11
16.99
15.46
12.81
8.07
0.72
-8.86
-19.15
-28.01
-33.47
-34.51
-31.39
-25.43
-18.25
-11.07
-4.39
1.68
6.98
10.93
12.74
12.12
9.74
7.38
7.15
10.47
17.32
26.28
35.42
43.42
50.26
56.91
64.36
72.74
81.00
87.59
91.33
91.96
90.01
86.01
80.05
71.77
60.89
47.82
33.74
20.06
7.59
-3.87
-15.36
-27.92
-41.64
-55.21
-66.19
-71.91
-70.70
-62.59
-49.45
-34.38
-20.66
-10.69
-5.45
-4.39
-6.05
-8.85
-11.66
-13.96
-15.71
-17.02
-17.96
-18.68
-19.40
-20.53
-22.47
-25.34
-28.82
-32.20
-34.66
-35.60
-34.92
-33.00
-30.49
-28.06
-26.17
-24.91
-24.09
-23.26
-21.91
-19.66
-16.38
-12.33
-8.18
-4.93
-3.60
-4.98
-9.29
-16.01
-24.05
-32.03
-38.67
-43.17
-45.28
-45.20
-43.31
-40.08
-35.97
-31.60
-27.68
-24.91
-23.65
-23.64
-24.16
-24.34
-23.74
-22.63
-21.72
-21.56
-22.00
-21.94
-19.88
-14.74
-6.48
3.79
14.31
23.52
30.61
35.58
38.86
40.82
41.43
40.48
37.81
33.65
28.63
23.53
19.02
15.58
13.54
13.23
14.92
18.69
24.17
30.55
36.70
41.52
44.41
45.41
45.16
44.68
44.92
46.59
49.98
55.01
61.30
68.34
75.66
82.98
90.33
98.07
106.70
116.46
126.80
136.09
141.58
139.96
128.41
105.66
72.74
32.94
-9.04
-48.40
-81.40
-106.04
-121.98
-130.01
-131.45
-127.71
-120.18
-110.21
-99.21
-88.53
-79.42
-72.93
-69.80
-70.33
-74.26
-80.65
-87.95
-94.39
-98.42
-99.19
-96.75
-91.93
-85.97
-79.99
-74.74
-70.47
-67.08
-64.36
-62.14
-60.32
-58.87
-57.78
-57.12
-57.00
-57.47
-58.31
-58.79
-57.57
-52.93
-43.36
-28.25
-8.42
13.86
35.50
53.43
65.59
71.35
71.37
67.17
60.46
52.70
45.00
38.22
32.97
29.66
28.25
28.14
28.26
27.39
24.64
19.77
13.34
6.48
0.49
-3.61
-5.26
-4.42
-1.47
2.97
8.15
13.39
18.09
21.88
24.68
26.55
27.68
28.24
28.34
28.06
27.49
26.71
25.78
24.65
23.15
21.10
18.51
15.59
12.85
10.83
9.93
10.21
11.33
12.68
13.57
13.54
12.39
10.29
7.62
4.83
2.32
0.42
-0.69
-0.99
-0.67
-0.16
0.03
-0.55
-2.02
-4.10
-6.17
-7.55
-7.82
-6.93
-5.19
-3.08
-0.98
0.93
2.59
3.98
5.00
5.49
5.32
4.59
3.60
2.79
2.57
3.15
4.39
5.92
7.20
7.82
7.60
6.71
5.55
4.60
4.15
4.23
4.57
4.72
4.38
3.44
2.06
0.54
-0.88
-2.17
-3.45
-4.89
-6.54
-8.30
-9.95
-11.43
-12.91
-14.77
-17.43
-21.02
-25.22
-29.25
-32.11
-32.98
-31.42
-27.56
-21.92
-15.21
-8.10
-1.12
5.30
10.73
14.77
17.18
18.02
17.73
17.01
16.56
16.75
17.56
18.62
19.42
19.71
19.58
19.37
19.44
19.89
20.54
20.96
20.72
19.67
18.02
16.25
14.88
14.29
14.44
14.98
15.26
14.67
12.75
9.42
4.91
-0.30
-5.60
-10.44
-14.49
-17.70
-20.32
-22.77
-25.42
-28.36
-31.23
-33.25
-33.45
-31.16
-26.36
-19.94
-13.46
-8.59
-6.41
-6.83
-8.67
-10.18
-9.83
-6.99
-2.19
3.30
8.04
11.01
11.77
10.31
6.77
1.27
-6.00
-14.69
-24.17
-33.65
-42.46
-50.23
-56.95
-62.78
-67.80
-71.87
-74.58
-75.45
-74.14
-70.61
-65.12
-58.09
-49.90
-40.78
-30.81
-20.01
-8.48
3.42
15.07
25.67
34.40
40.58
43.90
44.54
43.21
41.05
39.32
38.99
40.38
42.93
45.36
46.07
43.76
37.94
29.15
18.76
8.46
-0.29
-6.73
-10.82
-13.11
-14.29
-14.86
-14.94
-14.30
-12.58
-9.47
-4.93
0.88
7.56
14.69
21.91
28.88
35.28
40.75
44.81
46.96
46.80
44.20
39.47
33.39
26.96
21.20
16.77
13.88
12.28
11.45
10.91
10.44
10.13
10.25
10.95
12.11
13.18
13.39
12.01
8.55
2.97
-4.29
-12.38
-20.18
-26.54
-30.58
-31.84
-30.45
-27.05
-22.63
-18.18
-14.47
-11.82
-10.15
-9.16
-8.49
-7.99
-7.62
-7.56
-7.92
-8.77
-10.12
-11.89
-14.03
-16.51
-19.32
-22.39
-25.60
-28.88
-32.24
-35.73
-39.28
-42.50
-44.69
-45.10
-43.32
-39.75
-35.47
-31.89
-29.94
-29.49
-29.35
-27.62
-22.57
-13.32
-0.21
15.35
31.28
45.44
56.13
62.39
64.11
61.81
56.40
48.86
40.14
31.19
23.00
16.54
12.41
10.60
10.33
10.52
10.28
9.51
8.84
9.18
10.98
13.86
16.87
18.96
19.65
19.08
17.73
15.91
13.52
10.17
5.67
0.40
-4.61
-8.05
-8.81
-6.55
-1.87
3.87
8.94
11.87
11.92
9.41
5.71
2.69
2.07
4.75
10.49
18.09
25.81
32.08
35.76
36.40
34.06
29.24
22.90
16.30
10.89
7.90
7.89
10.53
14.67
18.79
21.60
22.49
21.55
19.29
16.33
13.08
9.79
6.63
3.80
1.49
-0.25
-1.65
-3.24
-5.73
-9.63
-14.96
-21.01
-26.38
-29.53
-29.26
-25.34
-18.59
-10.58
-2.99
3.06
7.36
10.42
12.99
15.55
17.99
19.76
20.22
19.08
16.58
13.38
10.27
7.89
6.54
6.20
6.74
7.99
9.84
12.15
14.68
17.08
18.88
19.65
19.06
17.06
13.87
10.04
6.26
3.16
1.08
-0.14
-1.12
-2.74
-5.78
-10.60
-16.96
-24.05
-30.73
-35.76
-38.18
-37.40
-33.39
-26.67
-18.24
-9.35
-1.22
5.23
9.66
12.32
14.03
15.81
18.48
22.42
27.39
32.70
37.53
41.24
43.54
44.41
43.96
42.16
38.88
34.03
27.78
20.68
13.55
7.26
2.42
-0.87
-2.97
-4.58
-6.35
-8.62
-11.25
-13.70
-15.35
-15.79
-15.09
-13.83
-12.78
-12.69
-13.98
-16.66
-20.43
-24.81
-29.22
-33.07
-35.74
-36.68
-35.48
-32.09
-26.80
-20.25
-13.27
-6.66
-1.10
3.05
5.67
6.94
7.23
7.04
6.79
6.79
7.14
7.82
8.72
9.69
10.51
10.91
10.60
9.41
7.50
5.35
3.72
3.26
4.25
6.40
8.88
10.60
10.60
8.36
3.95
-2.04
-8.61
-14.70
-19.48
-22.59
-24.30
-25.34
-26.53
-28.33
-30.52
-32.33
-32.82
-31.43
-28.34
-24.41
-20.74
-18.10
-16.72
-16.24
-16.10
-15.84
-15.26
-14.43
-13.42
-12.28
-11.02
-9.76
-8.85
-8.74
-9.75
-11.74
-13.88
-14.82
-13.13
-7.93
0.66
11.41
22.34
31.41
37.22
39.37
38.47
35.68
32.18
28.68
25.33
21.91
18.19
14.24
10.50
7.62
6.10
6.02
7.00
8.40
9.67
10.62
11.47
12.60
14.20
15.97
17.23
17.24
15.66
12.84
9.78
7.71
7.53
9.35
12.43
15.54
17.50
17.70
16.34
14.26
12.55
12.01
12.85
14.64
16.51
17.59
17.37
15.97
14.03
12.52
12.35
13.98
17.38
21.95
26.81
31.04
33.84
34.73
33.89
32.63
33.48
39.73
54.13
77.11
105.81
134.43
156.18
166.01
162.47
147.89
126.78
103.47
80.49
58.58
37.87
19.07
3.79
-6.46
-11.75
-14.35
-18.13
-26.76
-41.93
-62.61
-85.57
-106.92
-123.77
-135.10
-141.82
-146.00
-149.89
-154.96
-161.28
-167.43
-170.77
-168.40
-158.27
-140.21
-116.47
-91.15
-68.79
-52.59
-43.04
-37.66
-32.17
-22.33
-5.85
16.63
41.82
65.00
81.68
89.00
86.43
75.72
60.37
44.59
32.16
25.37
24.33
26.96
29.71
28.76
21.46
7.31
-11.77
-32.14
-49.45
-60.04
-61.92
-55.25
-42.21
-26.25
-11.07
0.41
6.66
7.66
4.46
-1.44
-8.56
-15.70
-21.97
-26.74
-29.74
-31.02
-31.06
-30.71
-30.88
-32.20
-34.64
-37.45
-39.37
-39.12
-36.09
-30.72
-24.56
-19.79
-18.49
-21.95
-30.30
-42.59
-57.13
-71.87
-84.73
-93.68
-97.03
-93.69
-83.67
-68.26
-49.99
-31.94
-16.74
-5.73
1.49
6.78
12.47
20.31
30.69
42.49
53.82
62.96
69.26
73.31
76.53
80.34
85.46
91.68
98.07
103.38
106.30
105.48
99.52
87.18
67.82
42.21
12.86
-16.06
-39.98
-55.40
-61.31
-59.54
-53.96
-48.72
-46.54
-47.72
-50.48
-52.24
-51.28
-47.68
-43.24
-40.54
-41.44
-46.24
-53.41
-60.43
-64.83
-65.16
-61.37
-54.39
-45.40
-35.16
-23.67
-10.60
4.12
19.69
34.36
45.91
52.51
53.64
50.32
44.89
40.02
37.84
39.16
43.47
49.35
55.17
59.78
62.67
63.89
63.68
62.20
59.47
55.45
50.27
44.21
37.68
31.02
24.34
17.60
10.71
3.65
-3.39
-10.12
-16.29
-21.69
-26.25
-29.89
-32.57
-34.33
-35.28
-35.73
-36.16
-37.14
-39.18
-42.59
-47.17
-52.17
-56.31
-58.12
-56.42
-50.77
-41.79
-30.93
-20.07
-10.83
-4.06
0.36
3.34
6.06
9.46
13.81
18.61
22.76
25.04
24.60
21.30
15.82
9.36
3.27
-1.36
-3.89
-4.13
-2.21
1.38
5.89
10.22
13.12
13.49
10.83
5.48
-1.43
-8.33
-13.87
-17.39
-19.02
-19.45
-19.31
-18.85
-17.80
-15.66
-12.15
-7.51
-2.45
2.17
5.72
8.07
9.54
10.61
11.61
12.55
13.22
13.39
13.02
12.34
11.74
11.57
11.91
12.54
13.03
12.97
12.09
10.45
8.33
6.16
4.28
2.83
1.66
0.31
-1.72
-4.81
-8.93
-13.58
-17.84
-20.71
-21.49
-20.01
-16.68
-12.35
-7.82
-3.67
-0.06
3.14
6.12
8.90
11.27
12.86
13.37
12.78
11.40
9.76
8.38
7.55
7.28
7.33
7.36
7.15
6.65
5.94
5.18
4.45
3.73
2.87
1.67
-0.05
-2.43
-5.52
-9.21
-13.22
-17.09
-20.20
-21.95
-21.96
-20.14
-16.81
-12.54
-8.00
-3.74
-0.09
2.85
5.12
6.79
7.88
8.40
8.37
7.93
7.29
6.71
6.44
6.52
6.80
7.02
6.89
6.25
5.16
3.85
2.65
1.76
1.17
0.62
-0.28
-1.91
-4.43
-7.64
-10.97
-13.53
-14.34
-12.65
-8.15
-1.19
7.39
16.45
24.89
31.90
37.05
40.21
41.50
41.17
39.56
37.12
34.30
31.50
28.99
26.87
25.02
23.23
21.23
18.86
16.02
12.77
9.27
5.67
2.11
-1.39
-4.81
-8.08
-11.09
-13.60
-15.48
-16.76
-17.67
-18.59
-19.81
-21.33
-22.77
-23.48
-22.86
-20.64
-17.00
-12.60
-8.17
-4.34
-1.35
0.88
2.63
4.11
5.39
6.38
6.98
7.20
7.18
7.14
7.25
7.55
7.97
8.37
8.67
8.86
9.00
9.14
9.22
9.11
8.63
7.62
6.02
3.91
1.50
-0.97
-3.31
-5.51
-7.76
-10.33
-13.41
-16.91
-20.32
-22.84
-23.69
-22.44
-19.31
-15.05
-10.70
-7.10
-4.59
-3.04
-2.04
-1.24
-0.54
-0.04
0.12
-0.01
-0.29
-0.47
-0.48
-0.42
-0.56
-1.16
-2.33
-3.95
-5.69
-7.21
-8.20
-8.56
-8.39
-7.92
-7.41
-7.12
-7.28
-8.01
-9.40
-11.43
-13.98
-16.76
-19.41
-21.46
-22.45
-22.03
-20.00
-16.47
-11.78
-6.53
-1.40
3.03
6.39
8.65
9.99
10.66
10.90
10.84
10.52
9.98
9.34
8.73
8.24
7.87
7.51
7.00
6.22
5.20
4.10
3.14
2.49
2.17
2.00
1.76
1.18
0.12
-1.50
-3.63
-6.13
-8.71
-10.93
-12.27
-12.26
-10.73
-7.85
-4.16
-0.30
3.16
5.98
8.10
9.62
10.61
11.06
10.92
10.24
9.19
8.05
7.07
6.38
5.93
5.54
4.99
4.15
3.01
1.65
0.23
-1.10
-2.26
-3.25
-4.21
-5.35
-6.94
-9.15
-11.93
-14.94
-17.54
-19.08
-18.99
-17.09
-13.64
-9.23
-4.62
-0.47
2.84
5.23
6.83
7.85
8.41
8.52
8.18
7.45
6.52
5.72
5.33
5.49
6.09
6.74
7.01
6.54
5.31
3.58
1.85
0.51
-0.25
-0.63
-1.03
-1.92
-3.62
-6.19
-9.48
-13.15
-16.76
-19.76
-21.58
-21.68
-19.77
-15.97
-10.87
-5.33
-0.25
3.76
6.55
8.36
9.61
10.65
11.56
12.23
12.43
12.02
11.10
9.98
9.04
8.53
8.48
8.62
8.54
7.88
6.54
4.66
2.62
0.73
-0.82
-2.05
-3.18
-4.44
-6.01
-8.02
-10.49
-13.40
-16.63
-19.91
-22.79
-24.69
-25.05
-23.47
-19.99
-15.02
-9.31
-3.70
1.16
4.92
7.56
9.29
10.37
11.01
11.32
11.33
11.05
10.59
10.13
9.86
9.94
10.38
11.03
11.68
12.07
12.03
11.44
10.33
8.77
6.93
4.98
3.08
1.29
-0.44
-2.28
-4.45
-7.10
-10.29
-13.90
-17.66
-21.12
-23.68
-24.77
-23.91
-21.03
-16.42
-10.76
-4.87
0.56
5.12
8.73
11.51
13.64
15.20
16.23
16.67
16.51
15.81
14.71
13.44
12.29
11.56
11.34
11.55
11.90
12.00
11.58
10.60
9.23
7.74
6.38
5.16
3.97
2.63
1.01
-0.93
-3.16
-5.68
-8.52
-11.63
-14.77
-17.45
-18.98
-18.73
-16.36
-12.05
-6.44
-0.40
5.22
9.87
13.35
15.69
17.02
17.44
17.05
15.95
14.38
12.69
11.23
10.32
10.02
10.24
10.69
11.02
10.95
10.38
9.40
8.25
7.18
6.32
5.60
4.79
3.58
1.75
-0.78
-3.92
-7.52
-11.33
-15.02
-18.17
-20.27
-20.82
-19.52
-16.39
-11.79
-6.38
-0.86
4.17
8.34
11.50
13.69
15.03
15.64
15.63
15.09
14.15
12.99
11.81
10.85
10.24
10.03
10.09
10.19
10.07
9.53
8.50
7.07
5.41
3.70
2.04
0.43
-1.18
-2.93
-4.93
-7.32
-10.20
-13.55
-17.12
-20.39
-22.56
-22.84
-20.74
-16.31
-10.22
-3.53
2.66
7.64
11.23
13.71
15.54
17.05
18.28
19.05
19.12
18.40
17.07
15.49
14.03
12.98
12.36
12.05
11.79
11.34
10.58
9.46
8.06
6.46
4.76
3.06
1.42
-0.13
-1.64
-3.19
-5.00
-7.30
-10.27
-13.80
-17.42
-20.30
-21.45
-20.17
-16.33
-10.50
-3.76
2.66
7.85
11.40
13.44
14.38
14.71
14.75
14.62
14.32
13.79
13.02
12.07
11.03
10.04
9.17
8.45
7.85
7.33
6.81
6.24
5.56
4.70
3.62
2.26
0.62
-1.20
-3.07
-4.87
-6.53
-8.18
-10.06
-12.44
-15.35
-18.45
-20.97
-21.99
-20.75
-17.06
-11.41
-4.77
1.74
7.27
11.42
14.22
15.92
16.78
16.96
16.53
15.64
14.49
13.38
12.54
12.07
11.85
11.65
11.22
10.40
9.23
7.84
6.40
5.00
3.64
2.26
0.77
-0.88
-2.68
-4.56
-6.45
-8.28
-10.03
-11.68
-13.28
-14.80
-16.10
-16.90
-16.76
-15.31
-12.37
-8.17
-3.26
1.64
5.94
9.34
11.88
13.78
15.30
16.54
17.45
17.88
17.73
17.02
15.89
14.56
13.28
12.20
11.41
10.88
10.48
10.03
9.33
8.27
6.83
5.16
3.43
1.82
0.46
-0.67
-1.64
-2.64
-3.91
-5.73
-8.29
-11.59
-15.31
-18.76
-21.08
-21.48
-19.55
-15.50
-10.10
-4.48
0.30
3.49
4.89
4.79
3.74
2.31
0.92
-0.31
-1.41
-2.51
-3.67
-4.76
-5.56
-5.78
-5.23
-3.94
-2.16
-0.27
1.33
2.36
2.81
2.81
2.68
2.76
3.31
4.45
6.12
8.02
9.70
10.65
10.50
9.23
7.24
5.22
3.88
3.69
4.60
6.20
7.91
9.30
10.23
10.78
11.06
11.06
10.59
9.41
7.47
5.00
2.45
0.34
-0.94
-1.25
-0.71
0.48
2.07
3.83
5.48
6.76
7.41
7.33
6.61
5.49
4.22
2.92
1.56
-0.06
-2.10
-4.52
-7.06
-9.24
-10.52
-10.45
-8.82
-5.69
-1.43
3.41
8.22
12.52
16.07
18.77
20.67
21.79
22.15
21.81
20.97
20.03
19.50
19.84
21.22
23.42
25.92
28.10
29.55
30.25
30.60
31.19
32.55
34.89
38.05
41.59
45.05
48.05
50.31
51.60
51.68
50.38
47.75
44.13
40.13
36.46
33.60
31.68
30.53
29.88
29.59
29.77
30.63
32.16
33.90
34.83
33.72
29.51
21.85
11.37
-0.35
-11.33
-19.92
-25.52
-28.79
-31.41
-35.32
-42.02
-51.97
-64.57
-78.54
-92.33
-104.65
-114.48
-120.98
-123.34
-120.67
-112.24
-97.75
-77.70
-53.54
-27.50
-1.79
22.42
45.86
70.96
100.32
134.46
170.15
200.76
218.78
219.43
203.38
176.92
149.26
128.48
118.57
118.86
125.75
135.33
144.82
152.44
156.22
153.50
141.71
120.09
90.80
58.43
28.17
3.47
-15.13
-29.56
-42.58
-56.19
-70.84
-85.83
-100.12
-112.83
-123.29
-130.81
-134.57
-133.86
-128.67
-119.97
-109.69
-100.17
-93.42
-90.51
-91.11
-93.61
-95.66
-95.02
-90.51
-82.50
-72.77
-63.64
-56.97
-53.30
-51.75
-50.63
-48.35
-44.10
-38.12
-31.31
-24.72
-19.04
-14.41
-10.59
-7.30
-4.60
-2.92
-2.90
-4.98
-9.06
-14.37
-19.69
-23.83
-26.11
-26.55
-25.73
-24.41
-23.15
-22.11
-21.11
-19.89
-18.30
-16.47
-14.70
-13.33
-12.63
-12.69
-13.42
-14.53
-15.65
-16.43
-16.67
-16.35
-15.65
-14.81
-13.99
-13.23
-12.47
-11.63
-10.75
-10.04
-9.78
-10.23
-11.47
-13.31
-15.30
-16.90
-17.55
-16.92
-14.96
-11.95
-8.34
-4.70
-1.49
1.03
2.81
3.94
4.54
4.67
4.33
3.51
2.25
0.77
-0.69
-1.89
-2.77
-3.48
-4.28
-5.38
-6.83
-8.51
-10.18
-11.73
-13.21
-14.81
-16.71
-19.00
-21.58
-24.27
-26.88
-29.20
-30.96
-31.85
-31.44
-29.50
-26.11
-21.75
-17.21
-13.29
-10.46
-8.73
-7.67
-6.75
-5.63
-4.33
-3.17
-2.51
-2.48
-2.87
-3.24
-3.12
-2.33
-1.04
0.29
1.11
1.03
-0.04
-1.96
-4.43
-7.14
-9.89
-12.61
-15.24
-17.76
-20.01
-21.75
-22.67
-22.48
-21.05
-18.47
-15.00
-11.03
-6.98
-3.17
0.13
2.77
4.65
5.70
5.96
5.53
4.60
3.41
2.23
1.30
0.73
0.50
0.50
0.55
0.52
0.38
0.13
-0.11
-0.29
-0.42
-0.59
-0.98
-1.73
-3.01
-4.90
-7.40
-10.39
-13.57
-16.46
-18.48
-19.16
-18.26
-15.88
-12.47
-8.61
-4.87
-1.62
1.01
3.04
4.57
5.73
6.59
7.26
7.81
8.34
8.84
9.26
9.49
9.37
8.77
7.61
5.92
3.85
1.66
-0.33
-1.82
-2.65
-2.84
-2.61
-2.36
-2.52
-3.43
-5.27
-7.96
-11.13
-14.13
-16.24
-16.78
-15.41
-12.25
-7.87
-3.08
1.30
4.75
7.12
8.57
9.40
9.80
9.87
9.58
8.95
8.11
7.32
6.82
6.71
6.92
7.21
7.26
6.84
5.88
4.50
2.97
1.60
0.67
0.25
0.25
0.36
0.21
-0.56
-2.13
-4.44
-7.18
-9.85
-11.91
-12.85
-12.42
-10.60
-7.73
-4.37
-1.09
1.67
3.77
5.31
6.49
7.45
8.17
8.51
8.39
7.86
7.16
6.62
6.51
6.86
7.52
8.18
8.55
8.45
7.91
7.12
6.30
5.64
5.14
4.66
3.93
2.74
0.97
-1.30
-3.90
-6.56
-8.97
-10.85
-11.91
-11.94
-10.83
-8.68
-5.78
-2.55
0.55
3.20
5.20
6.52
7.24
7.40
7.07
6.31
5.24
4.06
3.03
2.40
2.28
2.67
3.37
4.06
4.46
4.37
3.82
3.00
2.14
1.41
0.79
0.10
-0.94
-2.57
-4.90
-7.86
-11.22
-14.62
-17.64
-19.79
-20.72
-20.21
-18.37
-15.56
-12.33
-9.29
-6.86
-5.17
-4.01
-3.01
-1.80
-0.24
1.53
3.19
4.44
5.20
5.69
6.26
7.28
8.85
10.83
12.93
14.83
16.36
17.43
17.98
17.93
17.27
16.11
14.68
13.19
11.70
9.94
7.47
3.93
-0.65
-5.76
-10.49
-13.87
-15.27
-14.61
-12.44
-9.64
-7.10
-5.39
-4.62
-4.46
-4.45
-4.18
-3.60
-3.01
-2.90
-3.76
-6.00
-9.96
-15.72
-22.93
-30.57
-36.91
-40.07
-38.80
-33.30
-25.42
-17.99
-13.67
-13.70
-17.61
-23.69
-30.16
-36.14
-41.89
-48.22
-55.58
-63.54
-70.83
-76.05
-78.30
-77.42
-73.51
-66.43
-55.48
-39.91
-19.87
2.84
24.85
42.33
52.46
54.65
50.54
43.08
35.17
28.58
23.74
20.25
17.60
15.62
14.37
13.88
13.99
14.36
14.69
14.82
14.66
14.02
12.57
9.92
5.81
0.26
-6.33
-13.34
-19.94
-25.26
-28.51
-29.18
-27.32
-23.72
-19.96
-18.05
-19.80
-25.92
-35.49
-45.97
-53.93
-56.33
-51.63
-40.29
-24.28
-6.04
12.50
30.29
46.76
60.97
71.23
75.54
72.69
63.24
49.75
35.83
24.49
17.08
13.26
11.97
12.73
16.05
22.64
31.87
40.94
45.37
40.99
26.18
2.91
-23.97
-48.85
-67.59
-78.50
-82.09
-79.85
-73.29
-63.74
-52.75
-42.51
-35.54
-33.82
-37.90
-46.41
-56.50
-64.87
-68.91
-67.39
-60.57
-49.84
-37.07
-23.95
-11.58
-0.43
9.37
17.67
24.15
28.55
31.22
33.36
36.76
42.86
51.88
62.52
72.58
80.12
84.54
86.82
88.77
91.90
96.43
101.23
104.61
105.33
103.21
99.07
93.99
88.61
82.85
76.12
68.00
58.66
49.01
40.49
34.42
31.54
31.68
33.97
37.16
40.17
42.38
43.61
44.05
43.93
43.41
42.46
40.95
38.73
35.69
31.85
27.37
22.57
17.85
13.56
9.88
6.79
4.07
1.44
-1.30
-4.24
-7.37
-10.71
-14.35
-18.43
-22.95
-27.55
-31.49
-33.79
-33.71
-31.02
-26.27
-20.56
-15.10
-10.79
-7.89
-6.07
-4.70
-3.22
-1.38
0.76
3.01
5.15
7.04
8.58
9.60
9.81
8.92
6.79
3.55
-0.24
-3.84
-6.48
-7.63
-7.24
-5.67
-3.63
-2.00
-1.56
-2.88
-6.17
-11.14
-17.01
-22.56
-26.51
-27.74
-25.81
-21.05
-14.49
-7.52
-1.40
3.02
5.54
6.52
6.58
6.35
6.24
6.37
6.62
6.77
6.63
6.10
5.23
4.13
2.88
1.54
0.13
-1.34
-2.81
-4.16
-5.29
-6.14
-6.78
-7.36
-8.08
-9.09
-10.47
-12.20
-14.25
-16.57
-19.15
-21.91
-24.63
-26.86
-28.03
-27.59
-25.18
-20.84
-15.02
-8.45
-1.90
4.02
8.96
12.96
16.28
19.35
22.52
25.95
29.54
32.92
35.66
37.36
37.86
37.19
35.60
33.48
31.32
29.64
28.95
29.65
31.79
35.05
38.62
41.54
42.95
42.54
40.71
38.40
36.67
36.11
36.43
36.52
34.93
30.64
23.76
15.59
8.19
3.53
2.61
5.02
9.06
12.46
13.16
10.10
3.46
-5.51
-15.11
-23.93
-31.32
-37.58
-43.65
-50.42
-58.19
-66.39
-73.80
-79.09
-81.48
-81.07
-78.77
-75.90
-73.75
-73.19
-74.54
-77.54
-81.43
-85.10
-87.36
-87.39
-84.94
-80.50
-75.05
-69.71
-65.42
-62.91
-62.68
-64.91
-69.24
-74.50
-78.70
-79.57
-75.35
-65.49
-50.79
-32.80
-12.96
8.04
30.07
52.89
75.40
95.56
111.06
120.38
123.48
121.69
116.89
110.68
103.91
97.00
90.54
85.51
82.98
83.13
84.49
83.93
77.76
63.28
40.17
10.76
-20.83
-50.38
-75.09
-94.22
-108.70
-119.95
-128.77
-134.82
-136.95
-134.10
-126.17
-114.43
-101.22
-89.09
-79.75
-73.25
-67.75
-60.23
-47.83
-29.31
-6.07
18.15
38.53
51.21
54.82
50.94
43.15
35.27
29.70
26.81
25.51
24.44
23.15
22.36
23.43
27.30
33.66
40.93
46.84
49.59
48.60
44.74
39.75
35.33
32.32
30.41
28.53
25.57
21.10
15.61
10.29
6.48
5.10
6.32
9.56
13.74
17.73
20.76
22.69
24.03
25.53
27.66
30.23
32.26
32.36
29.33
22.76
13.36
2.72
-7.15
-14.59
-18.75
-19.82
-18.87
-17.38
-16.74
-17.77
-20.44
-23.78
-26.25
-26.22
-22.74
-16.08
-7.76
-0.16
4.43
4.63
0.60
-6.09
-13.11
-18.35
-20.67
-20.14
-17.82
-15.11
-13.15
-12.49
-13.09
-14.53
-16.34
-18.08
-19.42
-20.12
-19.83
-18.24
-15.13
-10.65
-5.44
-0.59
2.60
3.00
0.11
-5.70
-13.12
-20.22
-24.93
-25.75
-22.21
-15.10
-6.29
2.07
8.27
11.70
12.97
13.40
14.24
16.10
18.79
21.70
24.41
26.95
29.72
33.03
36.81
40.57
43.92
46.92
50.19
54.46
59.93
65.89
70.96
73.77
73.78
71.55
68.24
64.79
61.21
56.54
49.66
40.24
29.35
19.33
12.66
10.84
13.68
19.41
25.62
30.33
32.69
32.91
31.71
29.56
26.38
21.64
14.94
6.50
-2.65
-10.92
-16.77
-19.47
-19.52
-18.58
-18.90
-22.43
-30.06
-41.24
-54.13
-66.46
-76.24
-82.57
-85.67
-86.61
-86.63
-86.46
-86.06
-84.64
-81.00
-73.99
-62.97
-47.92
-29.46
-8.65
13.16
34.41
53.32
68.07
77.02
79.36
75.55
67.43
57.78
49.29
43.63
41.08
40.77
41.49
42.44
43.45
44.72
46.39
48.39
50.41
52.33
54.17
56.01
57.71
58.78
58.66
57.05
54.10
50.27
46.08
41.90
37.93
34.42
31.69
29.87
28.70
27.30
24.50
19.35
11.57
1.76
-8.94
-19.25
-28.25
-35.32
-40.19
-42.70
-42.97
-41.51
-39.46
-38.39
-39.87
-44.72
-52.52
-61.68
-69.92
-75.26
-76.90
-75.33
-72.08
-68.70
-66.06
-63.97
-61.55
-57.85
-52.55
-46.10
-39.46
-33.55
-28.90
-25.61
-23.73
-23.55
-25.52
-29.73
-35.32
-40.26
-41.97
-38.48
-29.62
-17.36
-5.05
4.00
7.98
7.19
3.53
-0.73
-4.09
-6.33
-8.26
-10.80
-14.30
-18.10
-20.90
-21.32
-18.58
-12.86
-5.20
2.85
9.99
15.49
19.35
22.06
24.08
25.51
26.08
25.39
23.28
20.04
16.38
13.09
10.79
9.57
9.06
8.49
7.07
4.29
0.23
-4.55
-9.16
-12.91
-15.65
-17.90
-20.57
-24.38
-29.32
-34.48
-38.26
-39.12
-36.18
-29.69
-20.99
-11.85
-3.94
1.78
5.17
6.70
7.05
6.74
6.09
5.23
4.34
3.74
3.85
4.99
7.19
10.11
13.11
15.43
16.49
15.99
14.06
11.09
7.67
4.28
1.17
-1.73
-4.61
-7.67
-10.78
-13.53
-15.26
-15.37
-13.64
-10.29
-5.96
-1.46
2.49
5.53
7.63
8.98
9.80
10.18
10.09
9.48
8.43
7.18
6.05
5.35
5.12
5.18
5.21
4.85
3.96
2.63
1.13
-0.26
-1.40
-2.38
-3.52
-5.15
-7.45
-10.23
-12.93
-14.79
-15.13
-13.64
-10.53
-6.43
-2.14
1.69
4.71
6.94
8.54
9.67
10.38
10.62
10.39
9.82
9.12
8.51
8.10
7.77
7.32
6.56
5.46
4.23
3.20
2.63
2.59
2.93
3.27
3.28
2.67
1.35
-0.64
-3.07
-5.59
-7.73
-9.01
-9.02
-7.60
-4.96
-1.54
2.04
5.27
7.84
9.73
11.12
12.19
13.06
13.70
13.99
13.82
13.09
11.78
9.89
7.42
4.47
1.34
-1.41
-2.98
-2.66
-0.15
4.12
9.03
13.09
14.98
14.00
10.32
4.84
-1.16
-6.35
-9.72
-10.66
-9.03
-5.12
0.39
6.57
12.35
16.82
19.32
19.68
18.19
15.52
12.54
10.05
8.57
8.24
8.82
9.85
10.78
11.07
10.14
7.43
2.44
-5.04
-14.68
-25.45
-35.77
-43.93
-48.76
-50.09
-48.88
-46.74
-45.14
-44.67
-44.82
-44.35
-42.05
-37.42
-30.89
-23.41
-15.85
-8.52
-1.10
6.93
15.71
24.73
32.90
39.03
42.38
42.84
40.91
37.38
32.93
27.94
22.51
16.70
10.70
5.03
0.36
-2.71
-3.97
-3.67
-2.49
-1.21
-0.46
-0.54
-1.37
-2.63
-3.92
-4.84
-5.12
-4.60
-3.38
-1.72
0.05
1.62
2.86
3.81
4.63
5.45
6.34
7.25
8.11
8.94
9.77
10.66
11.57
12.32
12.61
12.13
10.65
8.13
4.82
1.14
-2.35
-5.14
-6.96
-7.88
-8.32
-8.92
-10.26
-12.60
-15.59
-18.34
-19.70
-18.73
-15.13
-9.38
-2.54
4.30
10.46
15.82
20.63
25.06
28.89
31.66
33.17
34.00
35.60
39.70
47.31
57.87
69.14
77.83
80.80
76.13
63.50
43.88
19.06
-8.61
-36.12
-59.58
-74.59
-77.54
-67.28
-46.35
-20.84
1.54
14.18
14.06
2.62
-15.30
-33.74
-48.02
-55.94
-57.69
-54.69
-48.46
-40.04
-30.12
-19.63
-9.97
-2.81
0.51
-0.29
-4.22
-9.29
-13.25
-14.43
-12.27
-7.41
-1.24
4.68
9.21
11.91
12.96
12.85
11.89
10.02
6.91
2.26
-3.68
-9.96
-15.05
-17.44
-16.24
-11.70
-5.13
1.56
6.58
8.88
8.44
6.12
3.20
0.78
-0.48
-0.47
0.59
2.38
4.72
7.51
10.57
13.52
15.73
16.49
15.27
11.95
6.90
0.84
-5.34
-10.89
-15.30
-18.41
-20.33
-21.44
-22.12
-22.70
-23.21
-23.40
-22.75
-20.73
-17.06
-11.92
-6.01
-0.33
4.20
7.06
8.39
8.84
9.28
10.41
12.50
15.28
18.16
20.47
21.74
21.74
20.48
18.04
14.53
10.12
5.16
0.13
-4.35
-7.78
-9.89
-10.70
-10.45
-9.48
-8.12
-6.74
-5.73
-5.50
-6.32
-8.15
-10.56
-12.80
-14.06
-13.84
-12.10
-9.25
-5.90
-2.55
0.61
3.60
6.54
9.33
11.67
13.12
13.31
12.22
10.19
7.78
5.49
3.32
0.77
-3.13
-9.21
-17.52
-26.92
-35.07
-39.10
-36.64
-26.85
-10.90
8.12
26.04
38.78
43.38
38.68
25.61
6.97
-13.04
-29.77
-39.23
-39.27
-30.43
-15.93
-0.64
10.65
15.01
12.31
4.94
-3.49
-9.75
-12.17
-10.74
-6.57
-0.96
5.08
10.87
15.62
18.34
17.98
14.01
6.94
-1.63
-9.43
-14.33
-14.98
-11.36
-4.51
4.02
12.69
20.44
26.99
32.90
39.52
48.67
61.92
79.87
101.73
125.14
146.44
161.56
166.98
160.76
143.40
117.82
89.22
63.94
47.49
42.44
47.48
58.10
68.68
75.20
76.39
73.82
70.98
71.10
75.33
82.35
89.23
92.13
90.24
84.42
75.56
63.41
47.79
27.66
2.43
-27.46
-60.40
-93.93
-126.07
-156.02
-184.32
-212.43
-241.90
-273.12
-304.73
-333.97
-357.49
-372.94
-379.32
-376.56
-364.68
-343.61
-313.47
-275.80
-234.45
-195.43
-165.21
-147.95
-143.11
-145.07
-145.25
-135.39
-110.64
-70.72
-18.78
40.37
101.99
161.77
215.15
256.84
281.64
286.24
271.05
240.78
203.08
165.86
134.93
112.90
100.11
96.27
101.48
116.07
139.10
167.14
194.13
212.98
218.16
207.90
184.95
155.42
125.99
101.12
81.20
62.98
41.51
13.04
-22.56
-61.23
-96.06
-120.34
-130.55
-128.13
-118.86
-110.13
-107.42
-111.80
-119.54
-124.12
-119.51
-103.01
-76.42
-44.89
-14.51
10.30
28.15
40.30
48.98
55.42
58.76
56.60
47.04
30.85
12.44
-1.44
-4.75
4.81
24.30
47.00
65.76
76.38
79.21
78.00
76.96
78.03
79.94
79.40
73.47
61.43
45.15
27.98
13.08
2.18
-4.61
-8.24
-9.95
-10.69
-11.14
-11.85
-13.47
-16.67
-21.85
-28.81
-36.83
-44.83
-51.94
-57.83
-62.91
-67.88
-73.38
-79.47
-85.51
-90.47
-93.26
-93.08
-89.67
-83.32
-74.93
-65.94
-58.05
-52.82
-51.10
-52.68
-56.24
-59.83
-61.61
-60.44
-56.25
-49.76
-42.07
-34.17
-26.69
-19.90
-13.81
-8.39
-3.56
0.62
4.10
6.75
8.42
9.11
8.92
7.99
6.44
4.26
1.53
-1.39
-3.72
-4.46
-2.93
0.67
4.99
7.97
7.75
3.61
-3.38
-10.77
-15.64
-15.92
-11.24
-2.89
6.75
15.33
21.28
24.16
24.40
22.88
20.48
17.99
16.10
15.47
16.52
19.31
23.28
27.34
30.28
31.23
30.07
27.36
24.01
20.75
17.86
15.11
12.02
8.18
3.32
-2.58
-9.30
-16.33
-22.73
-27.14
-28.22
-25.00
-17.51
-6.85
5.13
16.48
25.77
32.51
36.99
39.92
41.91
43.25
43.79
43.23
41.37
38.28
34.38
30.24
26.45
23.29
20.72
18.48
16.19
13.61
10.70
7.65
4.68
1.87
-0.90
-4.06
-8.19
-13.75
-20.88
-29.01
-36.90
-42.81
-45.12
-42.93
-36.58
-27.54
-17.93
-9.68
-3.90
-0.61
1.03
2.14
3.64
5.85
8.65
11.66
14.63
17.51
20.55
24.00
28.04
32.55
37.24
41.75
45.74
48.96
51.17
51.91
50.56
46.47
39.30
29.35
17.63
5.69
-4.86
-12.91
-18.05
-20.51
-20.89
-19.68
-17.13
-13.32
-8.48
-3.05
2.28
6.83
10.29
12.79
14.84
17.02
19.65
22.63
25.48
27.58
28.47
28.08
26.76
25.09
23.67
22.79
22.33
21.88
20.80
18.74
15.64
11.86
8.02
4.74
2.34
0.87
0.07
-0.40
-0.84
-1.45
-2.41
-3.93
-6.37
-10.14
-15.36
-21.72
-28.27
-33.59
-36.13
-34.82
-29.44
-20.78
-10.32
0.28
9.75
17.42
23.17
27.06
29.00
28.75
26.03
21.05
14.53
7.74
2.11
-1.24
-1.80
0.30
4.51
10.05
16.11
21.87
26.47
29.12
29.21
26.46
21.14
13.97
6.09
-1.20
-6.72
-9.62
-9.70
-7.44
-3.98
-0.87
0.37
-1.37
-6.25
-13.48
-21.43
-28.16
-32.10
-32.54
-29.84
-25.20
-20.18
-16.11
-13.66
-12.71
-12.49
-11.90
-9.91
-5.81
0.50
8.50
17.20
25.27
31.42
34.63
34.54
31.52
26.67
21.40
17.02
14.27
13.15
13.08
13.32
13.20
12.42
10.94
8.81
6.19
3.18
0.05
-2.94
-5.57
-7.95
-10.52
-13.92
-18.52
-24.06
-29.43
-33.01
-33.19
-29.15
-21.25
-11.07
-0.90
7.03
11.19
11.19
7.72
2.16
-3.81
-8.65
-11.20
-10.75
-7.21
-1.10
6.41
13.80
19.55
22.64
22.85
20.71
17.27
13.60
10.42
8.03
6.30
4.97
3.71
2.28
0.57
-1.40
-3.47
-5.40
-6.96
-8.17
-9.34
-10.92
-13.30
-16.42
-19.66
-21.99
-22.43
-20.49
-16.42
-11.12
-5.66
-0.84
3.01
6.10
8.69
10.90
12.51
13.05
12.23
10.15
7.44
5.00
3.62
3.63
4.82
6.64
8.55
10.30
11.93
13.52
14.95
15.79
15.42
13.53
10.34
6.67
3.57
1.72
1.02
0.57
-0.96
-4.66
-10.88
-19.10
-28.21
-36.86
-43.92
-48.64
-50.59
-49.73
-46.27
-40.82
-34.24
-27.56
-21.55
-16.52
-12.23
-8.09
-3.60
1.30
6.13
9.99
12.12
12.28
10.93
9.08
7.74
7.43
7.94
8.48
8.16
6.53
3.81
0.74
-1.80
-3.20
-3.35
-2.56
-1.32
-0.07
0.90
1.36
1.13
0.02
-2.08
-5.08
-8.64
-12.20
-15.13
-16.91
-17.20
-15.99
-13.60
-10.57
-7.47
-4.64
-2.11
0.44
3.41
6.94
10.73
14.08
16.25
16.88
16.23
15.16
14.64
15.21
16.57
17.63
16.93
13.28
6.41
-2.94
-13.12
-22.23
-28.75
-32.01
-32.35
-30.84
-28.72
-27.01
-26.16
-26.18
-26.77
-27.62
-28.51
-29.36
-30.16
-30.82
-31.21
-31.09
-30.14
-28.01
-24.38
-19.17
-12.62
-5.40
1.47
6.81
9.63
9.36
6.08
0.58
-5.77
-11.28
-14.30
-13.71
-9.19
-1.26
8.87
19.78
30.22
39.36
46.73
52.04
54.95
55.05
52.15
46.50
38.87
30.42
22.26
15.14
9.28
4.53
0.61
-2.58
-4.96
-6.38
-6.76
-6.22
-5.07
-3.63
-2.22
-0.99
-0.01
0.72
1.27
1.75
2.17
2.43
2.24
1.28
-0.62
-3.28
-6.20
-8.76
-10.53
-11.59
-12.40
-13.63
-15.82
-19.04
-22.93
-26.77
-29.69
-30.96
-30.06
-26.81
-21.47
-14.67
-7.34
-0.40
5.44
9.90
13.09
15.38
17.17
18.69
20.06
21.26
22.26
22.99
23.43
23.39
22.60
20.71
17.47
12.91
7.54
2.13
-2.38
-5.35
-6.63
-6.60
-6.01
-5.69
-6.30
-8.18
-11.31
-15.27
-19.31
-22.44
-23.67
-22.35
-18.44
-12.63
-6.12
-0.17
4.47
7.78
10.52
13.70
18.09
23.71
29.82
35.15
38.42
38.86
36.40
31.70
25.80
19.69
14.08
9.29
5.38
2.44
0.64
0.14
0.92
2.56
4.14
4.51
2.64
-1.97
-9.05
-17.71
-26.66
-34.53
-40.16
-42.78
-42.02
-38.09
-31.71
-24.04
-16.39
-9.92
-5.23
-2.35
-0.78
0.16
1.06
2.17
3.48
4.73
5.75
6.49
7.14
7.91
8.96
10.18
11.28
11.93
11.84
10.96
9.42
7.43
5.17
2.79
0.42
-1.70
-3.36
-4.50
-5.37
-6.56
-8.67
-11.94
-15.96
-19.64
-21.67
-21.10
-17.74
-12.25
-5.84
0.26
5.21
8.76
11.02
12.27
12.65
12.20
10.90
8.90
6.61
4.63
3.55
3.72
5.14
7.44
10.03
12.31
13.82
14.36
13.96
12.82
11.20
9.28
7.19
4.93
2.49
-0.18
-3.06
-6.11
-9.28
-12.47
-15.50
-18.02
-19.54
-19.51
-17.54
-13.71
-8.57
-3.03
1.98
5.90
8.65
10.57
12.10
13.51
14.78
15.71
16.17
16.25
16.23
16.42
16.93
17.58
18.08
18.14
17.68
16.85
15.89
14.94
13.96
12.79
11.29
9.44
7.42
5.47
3.71
2.10
0.44
-1.54
-4.10
-7.32
-11.17
-15.43
-19.66
-23.27
-25.56
-25.92
-24.01
-19.87
-13.99
-7.19
-0.46
5.31
9.53
12.02
13.01
12.97
12.50
12.08
11.94
12.07
12.26
12.27
11.94
11.26
10.24
8.95
7.46
5.81
4.13
2.60
1.40
0.65
0.36
0.34
0.37
0.18
-0.44
-1.60
-3.31
-5.48
-7.96
-10.56
-13.11
-15.48
-17.64
-19.52
-20.96
-21.66
-21.27
-19.55
-16.55
-12.73
-8.78
-5.39
-2.96
-1.46
-0.45
0.60
2.10
4.10
6.31
8.26
9.54
10.00
9.79
9.19
8.54
7.94
7.36
6.66
5.81
4.92
4.21
3.84
3.80
3.88
3.74
3.13
1.97
0.40
-1.30
-2.83
-4.00
-4.77
-5.32
-6.05
-7.41
-9.74
-13.02
-16.76
-20.05
-21.88
-21.54
-18.92
-14.57
-9.42
-4.37
0.01
3.62
6.65
9.28
11.48
13.04
13.67
13.29
12.09
10.48
8.95
7.81
7.14
6.77
6.40
5.75
4.69
3.23
1.47
-0.53
-2.83
-5.52
-8.69
-12.22
-15.82
-19.08
-21.69
-23.54
-24.73
-25.52
-26.13
-26.68
-27.23
-27.81
-28.44
-29.10
-29.59
-29.46
-28.12
-25.11
-20.29
-14.04
-7.08
-0.21
5.98
11.23
15.56
19.02
21.60
23.21
23.85
23.74
23.35
23.23
23.79
25.10
26.84
28.49
29.56
29.76
29.00
27.27
24.61
21.07
16.78
12.09
7.49
3.40
0.01
-2.92
-5.88
-9.44
-13.91
-19.29
-25.31
-31.61
-37.87
-43.73
-48.72
-52.14
-53.21
-51.34
-46.49
-39.32
-31.16
-23.56
-17.64
-13.53
-10.15
-5.56
2.20
14.09
29.43
45.92
60.60
70.93
75.78
75.64
72.01
66.45
59.85
52.31
43.67
34.11
24.51
16.14
10.11
6.74
5.39
4.82
3.83
1.80
-1.11
-4.34
-7.34
-9.99
-12.61
-15.62
-19.14
-22.79
-25.79
-27.26
-26.68
-24.07
-19.96
-15.22
-10.73
-7.22
-5.06
-4.39
-5.22
-7.47
-10.97
-15.19
-19.21
-21.85
-22.08
-19.55
-14.84
-9.29
-4.44
-1.29
0.10
0.46
0.83
1.89
3.63
5.44
6.52
6.30
4.69
1.83
-2.23
-7.78
-15.46
-25.85
-38.85
-53.48
-67.80
-79.59
-87.09
-89.39
-86.48
-78.97
-67.69
-53.60
-37.93
-22.14
-7.78
4.01
12.96
19.68
25.16
30.13
34.55
37.70
38.87
37.93
35.59
33.15
31.80
32.16
34.10
37.05
40.29
43.28
45.59
46.87
46.83
45.29
42.45
38.81
34.97
31.34
27.77
23.63
18.13
10.93
2.61
-5.31
-10.80
-12.28
-9.33
-3.12
4.02
9.52
11.59
9.84
5.27
-0.34
-5.33
-8.71
-10.47
-11.23
-11.81
-12.77
-14.23
-15.98
-17.69
-19.13
-20.25
-21.13
-21.84
-22.27
-22.12
-21.02
-18.66
-14.97
-10.05
-4.13
2.60
9.79
16.86
22.89
26.78
27.73
25.58
21.05
15.55
10.59
7.25
5.74
5.38
4.95
3.15
-0.93
-7.47
-15.95
-25.35
-34.62
-43.16
-51.08
-58.96
-67.33
-76.06
-84.13
-89.98
-92.41
-91.37
-88.22
-85.18
-84.25
-86.21
-90.38
-95.00
-98.03
-97.61
-92.20
-80.69
-62.65
-38.81
-11.28
16.83
42.57
64.38
82.62
98.87
114.43
128.97
140.32
145.57
142.85
132.58
117.64
102.35
90.80
85.53
86.89
93.26
101.91
109.86
114.68
114.86
109.91
100.16
86.66
71.12
55.79
43.35
36.32
36.08
41.74
49.72
54.34
49.66
31.75
0.45
-40.06
-82.52
-118.81
-142.60
-151.20
-145.98
-131.17
-111.93
-92.33
-74.23
-57.36
-40.23
-21.49
-0.91
20.28
39.66
54.39
61.95
60.61
49.59
29.32
1.58
-30.28
-61.53
-86.96
-102.27
-105.58
-98.16
-84.03
-68.34
-55.39
-47.06
-42.54
-39.18
-34.01
-25.16
-12.41
