1574764515.00
64.000000
-0.00
-0.00
-0.00
-0.00
-0.00
-0.00
-0.00
-0.00
-0.00
-0.00
0.00
0.01
0.01
-0.00
-0.03
-0.05
-0.05
0.00
0.13
0.36
0.66
1.01
1.37
1.72
2.06
2.40
2.79
3.24
3.80
4.42
5.06
5.66
6.20
6.68
7.15
7.68
8.31
9.14
10.09
11.04
11.88
12.56
13.14
13.76
14.65
15.96
17.91
20.32
22.90
25.38
27.58
29.57
31.68
34.32
37.81
42.54
48.15
54.10
59.83
64.97
69.58
74.14
79.34
85.71
93.76
103.00
112.62
121.73
129.77
136.75
143.30
150.75
157.77
166.64
177.95
191.79
206.97
220.57
228.25
225.36
208.53
176.87
132.76
80.05
23.07
-34.94
-92.44
-149.16
-205.23
-260.37
-313.74
-363.88
-409.83
-450.91
-486.50
-515.73
-537.21
-549.19
-549.91
-538.29
-514.10
-478.54
-433.71
-382.23
-326.76
-269.53
-212.27
-156.24
-102.48
-51.85
-5.33
36.21
72.11
102.09
126.30
145.24
159.62
170.16
177.46
181.94
183.87
183.49
181.07
176.95
171.55
165.28
158.47
151.39
144.17
136.88
129.57
122.28
115.07
108.01
101.18
94.61
88.35
82.40
76.77
71.47
66.51
61.90
57.64
53.75
50.22
47.04
44.19
41.71
39.56
37.77
36.33
35.22
34.43
33.89
33.54
33.26
32.91
32.33
31.37
29.85
27.65
24.71
21.01
16.61
11.61
6.22
0.67
-4.72
-9.69
-13.92
-17.17
-19.27
-20.13
-19.74
-18.21
-15.69
-12.41
-8.63
-4.59
-0.51
3.46
7.23
10.78
14.12
17.24
20.10
22.66
24.80
26.40
27.31
27.41
26.60
24.90
22.32
19.03
15.30
11.53
8.20
5.80
4.86
5.82
9.04
14.58
22.38
32.24
43.85
56.82
70.68
84.97
99.29
113.36
126.66
138.86
149.74
159.19
167.18
173.76
179.02
183.09
186.13
187.88
188.12
186.65
183.27
177.71
169.65
158.61
143.85
127.27
109.82
92.30
75.42
59.76
45.80
33.92
24.40
17.38
12.93
10.58
9.84
10.23
11.29
12.63
13.91
14.88
15.39
15.37
14.54
12.77
10.04
6.46
2.22
-2.45
-7.30
-12.12
-16.71
-21.06
-25.16
-28.91
-32.11
-34.47
-35.67
-35.45
-33.70
-30.52
-26.31
-21.61
-16.92
-12.63
-9.00
-6.18
-4.28
-3.57
-4.52
-7.69
-13.59
-22.39
-33.77
-46.96
-60.89
-74.59
-87.50
-99.63
-111.45
-123.46
-135.84
-148.13
-159.25
-167.85
-172.96
-174.15
-171.95
-167.42
-161.77
-156.09
-151.23
-147.81
-145.82
-144.09
-140.06
-130.28
-111.83
-83.91
-48.66
-10.48
25.82
57.26
83.72
107.43
130.94
155.23
178.87
198.74
211.84
216.78
214.25
206.30
195.16
181.98
166.64
148.17
125.45
98.38
68.01
36.29
5.52
-22.80
-48.36
-72.10
-95.59
-120.20
-146.65
-175.33
-206.85
-241.90
-280.31
-319.40
-353.40
-374.75
-377.45
-360.51
-329.50
-294.79
-267.07
-252.76
-251.54
-257.56
-263.09
-262.28
-252.70
-234.62
-209.17
-177.45
-141.35
-105.09
-75.64
-60.89
-66.10
-90.89
-128.23
-166.75
-194.91
-205.05
-195.64
-170.67
-137.15
-102.36
-71.71
-47.85
-31.01
-19.94
-13.21
-10.07
-10.44
-14.40
-21.19
-28.73
-34.01
-34.17
-28.02
-16.48
-1.99
13.08
27.64
41.94
56.70
71.66
85.19
95.04
99.99
101.00
101.13
104.26
113.26
128.73
148.44
167.86
181.21
182.78
168.27
136.22
88.95
32.71
-23.57
-70.80
-102.17
-115.35
-112.41
-98.72
-80.72
-63.79
-51.24
-44.24
-42.77
-46.42
-54.55
-66.09
-78.78
-89.33
-93.91
-89.63
-75.73
-53.89
-27.89
-1.75
22.14
43.67
64.36
85.24
104.95
119.43
123.66
114.54
93.12
65.05
38.41
20.26
14.07
18.36
28.32
38.39
44.56
45.43
41.37
33.26
21.86
8.36
-4.72
-13.59
-14.27
-5.32
10.89
28.20
38.90
37.73
24.34
3.68
-16.22
-28.05
-28.38
-18.78
-4.44
8.59
15.99
16.71
12.52
6.98
3.70
4.96
11.38
21.82
34.27
46.42
56.00
60.87
58.85
48.19
28.61
2.39
-25.25
-47.40
-57.90
-54.07
-37.98
-15.52
6.09
21.95
31.13
36.21
40.70
46.10
50.78
50.99
43.65
28.78
9.93
-7.28
-18.27
-21.40
-18.45
-13.24
-9.17
-7.82
-8.35
-8.66
-6.91
-2.42
3.91
10.22
14.80
16.86
16.97
16.79
18.19
22.23
28.49
35.31
40.18
41.32
38.30
32.13
24.73
17.61
11.34
5.41
-0.92
-7.74
-14.05
-17.85
-17.74
-13.64
-7.81
-4.09
-5.97
-14.72
-27.97
-40.15
-44.82
-37.66
-18.99
5.92
29.30
44.76
50.60
50.45
51.12
58.47
73.84
93.41
109.82
116.43
110.46
94.02
72.77
52.46
36.41
24.51
14.59
4.64
-5.59
-14.23
-18.85
-17.83
-11.84
-3.81
2.63
4.73
2.13
-3.12
-7.75
-8.95
-6.03
-0.65
4.13
5.77
3.82
0.02
-2.69
-2.08
1.88
7.10
10.18
8.90
3.25
-4.48
-10.92
-13.83
-13.16
-11.03
-10.07
-11.78
-15.50
-18.79
-19.16
-15.44
-8.70
-1.87
2.12
1.49
-3.27
-9.98
-15.85
-18.58
-17.10
-11.52
-2.53
9.21
23.26
38.82
54.55
68.28
77.61
81.00
78.00
70.04
59.59
49.56
42.63
40.32
42.55
47.23
50.72
48.77
38.00
17.56
-10.43
-41.09
-68.32
-86.92
-93.73
-88.44
-72.95
-50.93
-27.24
-7.05
5.02
6.44
-1.78
-14.78
-25.16
-26.39
-15.80
3.65
24.55
38.91
41.68
33.72
20.85
10.79
9.39
17.86
32.93
49.11
61.82
69.32
72.59
73.68
73.54
71.33
64.94
52.49
34.01
11.74
-10.22
-27.45
-36.91
-37.71
-31.43
-21.26
-10.81
-2.90
1.28
2.01
0.75
-0.99
-2.28
-3.01
-3.81
-5.10
-6.73
-7.90
-7.67
-5.92
-3.62
-2.53
-4.19
-8.97
-15.77
-22.40
-26.77
-27.64
-25.13
-20.65
-15.82
-12.05
-9.88
-8.92
-8.37
-7.34
-5.38
-2.53
0.83
4.37
8.00
11.74
15.71
19.59
22.57
23.74
22.35
18.70
14.16
10.74
10.27
13.26
18.62
24.03
27.10
26.48
22.38
16.35
10.28
5.65
3.12
2.48
3.46
5.77
9.18
13.22
16.75
18.23
16.13
9.63
-0.93
-14.07
-27.62
-39.45
-48.00
-52.79
-54.37
-54.00
-53.32
-53.55
-55.15
-57.65
-59.85
-60.56
-59.15
-55.83
-51.50
-47.14
-43.35
-39.84
-35.81
-30.08
-21.65
-10.20
4.07
19.99
35.84
49.47
58.92
62.91
61.36
55.44
47.27
39.39
34.21
33.55
38.20
47.43
58.78
68.60
73.11
70.08
59.86
45.27
30.42
18.60
11.11
7.14
4.99
3.57
3.02
4.46
8.50
14.44
20.22
23.23
22.12
17.37
11.29
6.75
5.74
8.29
12.45
15.36
14.84
10.61
4.57
-0.14
-0.71
3.82
11.93
20.43
25.82
26.33
22.72
17.80
15.05
16.41
21.05
25.50
25.23
16.48
-2.15
-29.08
-60.43
-90.54
-112.86
-120.80
-108.84
-74.87
-22.47
38.26
92.36
124.97
127.14
99.94
54.48
7.46
-25.61
-36.38
-25.88
-2.78
21.19
36.28
37.46
24.87
2.30
-25.05
-52.05
-74.89
-91.51
-101.87
-107.20
-109.09
-108.55
-105.25
-97.85
-84.36
-63.38
-35.29
-2.88
28.32
50.68
56.22
38.95
-2.39
-62.82
-131.55
-194.84
-240.22
-260.30
-254.38
-227.22
-186.10
-138.04
-88.05
-39.05
7.41
50.76
91.13
129.32
166.08
201.29
233.46
260.37
280.53
294.12
302.93
308.81
312.45
313.22
310.33
304.48
298.17
294.21
293.40
292.77
286.48
268.74
237.45
196.09
152.37
114.54
87.42
70.85
61.14
54.24
48.79
46.78
51.87
66.49
89.56
116.33
140.47
156.94
164.08
163.77
159.69
155.01
150.91
146.37
139.34
128.13
112.20
92.61
71.56
51.64
34.96
22.37
13.16
5.15
-4.59
-18.97
-40.23
-69.53
-106.48
-148.33
-189.90
-224.62
-246.84
-254.71
-252.59
-250.46
-260.28
-290.36
-340.62
-400.87
-454.35
-484.45
-481.54
-446.56
-389.66
-325.39
-267.24
-223.82
-197.82
-187.06
-186.07
-187.22
-181.85
-161.49
-120.55
-59.26
14.47
86.25
139.55
162.03
150.33
111.70
61.20
15.72
-11.98
-16.75
-1.57
25.17
53.64
75.79
86.84
85.52
73.34
53.75
31.25
10.27
-5.97
-16.11
-20.86
-21.97
-20.76
-17.17
-10.25
0.60
14.05
26.60
34.03
33.74
26.47
16.25
8.40
7.04
13.51
26.65
44.46
65.56
89.59
116.21
144.03
170.04
190.60
203.21
207.86
207.00
204.32
202.81
203.48
205.20
205.49
201.77
192.36
176.66
154.99
128.07
96.26
59.40
17.15
-30.23
-80.71
-130.13
-172.74
-202.89
-217.20
-216.14
-204.08
-187.75
-173.58
-165.35
-163.14
-164.21
-164.87
-162.30
-155.79
-145.99
-133.81
-119.16
-100.71
-76.87
-47.51
-15.13
15.12
37.11
46.14
40.95
24.27
1.71
-20.51
-37.87
-48.66
-53.78
-55.35
-55.18
-53.90
-50.98
-45.64
-37.88
-28.98
-21.19
-16.67
-16.13
-18.08
-19.46
-17.23
-10.07
0.33
9.98
14.09
9.25
-5.25
-27.31
-53.00
-78.07
-98.72
-112.16
-116.55
-110.97
-95.90
-73.37
-47.15
-22.11
-2.96
6.84
5.97
-4.83
-23.47
-47.39
-74.29
-102.11
-128.76
-151.85
-169.14
-179.18
-181.85
-178.56
-171.80
-164.46
-159.18
-157.88
-161.22
-168.00
-0.00
-0.00
-0.00
-0.00
-0.00
-0.00
-0.00
-0.00
-0.00
-0.00
0.00
0.01
0.01
-0.00
-0.03
-0.05
-0.05
0.00
0.13
0.36
0.66
1.01
1.37
1.72
2.06
2.40
2.79
3.24
3.80
4.42
5.06
5.66
6.20
6.68
7.15
7.68
8.31
9.14
10.09
11.04
11.88
12.56
13.14
13.76
14.65
15.96
17.91
20.32
22.90
25.38
27.58
29.57
31.68
34.32
37.81
42.54
48.15
54.10
59.83
64.97
69.58
74.14
79.34
85.71
93.76
103.00
112.62
121.73
129.77
136.75
143.30
150.75
157.77
166.64
177.95
191.79
206.97
220.57
228.25
225.36
208.53
176.87
132.76
80.05
23.07
-34.94
-92.44
-149.16
-205.23
-260.37
-313.74
-363.87
-409.82
-450.89
-486.47
-515.69
-537.15
-549.11
-549.82
-538.18
-513.97
-478.38
-433.53
-382.04
-326.55
-269.30
-212.02
-155.98
-102.20
-51.55
-5.00
36.57
72.50
102.53
126.78
145.78
160.22
170.82
178.20
182.76
184.79
184.51
182.19
178.20
172.93
166.79
160.14
153.21
146.16
139.05
131.93
124.84
117.85
111.02
104.42
98.11
92.13
86.48
81.18
76.24
71.67
67.47
63.66
60.23
57.19
54.54
52.29
50.42
48.91
47.76
46.91
46.27
45.75
45.19
44.42
43.27
41.55
39.11
35.86
31.77
26.88
21.25
15.09
8.63
2.14
-4.10
-9.81
-14.76
-18.80
-21.81
-23.79
-24.77
-24.86
-24.22
-23.00
-21.38
-19.51
-17.49
-15.43
-13.33
-11.22
-9.09
-6.94
-4.73
-2.42
0.00
2.56
5.26
8.11
11.13
14.24
17.40
20.59
23.78
27.02
30.32
33.74
37.33
41.19
45.25
49.45
53.77
58.20
62.71
67.30
71.96
76.76
81.74
86.76
91.74
96.63
101.45
106.20
110.93
115.68
120.50
125.47
130.32
134.83
138.79
141.97
144.06
144.70
143.39
139.42
134.17
128.15
121.65
114.91
108.06
101.20
94.43
87.85
81.57
75.74
70.20
64.90
59.80
54.93
50.34
46.08
42.20
38.74
35.79
33.13
30.65
28.27
25.97
23.76
21.65
19.66
17.84
16.20
14.63
13.06
11.48
9.91
8.40
6.99
5.69
4.47
3.27
1.93
0.36
-1.44
-3.42
-5.44
-7.40
-9.27
-11.13
-13.18
-15.63
-18.63
-22.14
-25.96
-29.79
-33.37
-36.64
-39.81
-43.28
-47.52
-52.85
-59.30
-66.56
-74.09
-81.45
-88.45
-95.37
-102.82
-111.52
-121.96
-134.16
-147.66
-161.69
-175.49
-188.56
-200.89
-212.97
-225.80
-240.79
-259.48
-282.85
-310.40
-339.60
-365.92
-384.02
-389.51
-380.45
-358.05
-325.99
-288.97
-251.25
-215.74
-184.04
-156.74
-133.86
-115.04
-99.47
-86.16
-74.19
-63.10
-53.02
-44.25
-36.98
-30.95
-25.55
-20.24
-14.69
-9.01
-3.47
1.68
6.27
10.16
13.22
15.29
16.36
16.68
16.75
17.12
18.25
20.38
23.50
27.44
31.91
36.58
41.07
45.03
48.26
50.54
51.82
52.03
51.18
49.44
47.17
45.01
43.61
43.47
44.75
47.19
50.21
53.06
54.90
54.92
52.59
47.82
41.17
33.85
27.30
22.71
20.51
20.18
20.54
20.35
18.72
15.37
10.46
4.41
-2.30
-9.08
-15.06
-19.17
-20.41
-18.28
-13.18
-6.38
0.37
5.49
8.19
8.70
8.03
7.36
7.57
8.86
10.90
13.05
14.73
15.59
15.41
14.24
12.37
10.39
9.13
9.36
11.30
14.38
17.13
17.79
14.96
8.36
-1.00
-11.13
-19.75
-25.13
-26.52
-24.22
-19.32
-13.20
-7.16
-2.23
1.00
2.31
1.90
0.17
-2.16
-4.33
-5.62
-5.47
-3.84
-1.06
2.17
5.02
6.95
7.86
8.16
8.54
9.62
11.56
13.97
16.09
17.10
16.69
15.15
13.26
11.90
11.44
11.62
11.66
10.74
8.55
5.47
2.44
0.32
-0.46
-0.12
0.59
1.04
0.89
0.32
-0.18
-0.27
0.14
0.81
1.52
2.25
3.28
4.93
7.12
9.33
10.63
10.16
7.71
3.68
-0.98
-5.39
-9.12
-12.17
-14.89
-17.44
-19.54
-20.60
-19.97
-17.47
-13.64
-9.85
-7.86
-9.16
-14.56
-23.41
-33.90
-43.45
-49.65
-51.31
-48.83
-44.14
-39.84
-38.18
-40.20
-45.63
-53.34
-61.78
-69.52
-75.27
-77.45
-74.66
-65.87
-51.39
-33.32
-14.81
0.93
12.44
20.66
28.15
37.13
47.66
57.00
60.98
56.61
44.27
27.87
13.55
6.69
9.84
22.06
39.58
57.81
72.85
82.41
85.81
83.62
77.44
69.65
63.35
61.79
67.25
80.37
99.30
120.14
137.87
147.79
147.21
136.08
117.01
94.21
72.04
53.79
41.09
33.98
31.39
31.71
33.30
34.59
34.76
33.51
31.23
28.75
26.42
23.95
20.12
13.53
3.56
-9.05
-22.13
-33.00
-39.57
-41.14
-38.67
-34.08
-29.78
-27.71
-29.09
-34.22
-42.22
-51.45
-59.65
-64.71
-65.19
-60.80
-52.46
-41.91
-31.34
-22.75
-17.64
-17.08
-21.24
-29.70
-41.40
-54.58
-67.27
-77.24
-82.42
-81.00
-71.93
-55.36
-32.88
-7.41
17.63
39.18
55.08
64.58
67.74
65.50
59.35
51.25
43.73
39.01
38.41
41.67
46.87
51.24
52.21
48.61
41.04
31.51
22.58
16.09
13.05
13.33
16.24
21.06
27.08
33.72
40.26
45.89
49.68
50.94
49.39
45.20
38.99
31.57
23.60
15.78
8.28
1.06
-6.08
-13.81
-22.49
-32.37
-43.07
-53.48
-61.92
-66.03
-63.31
-51.51
-29.59
1.45
38.16
74.79
105.05
123.73
128.39
119.85
101.07
75.55
45.62
12.37
-22.67
-55.23
-77.44
-79.53
-54.14
-0.72
72.54
151.25
220.40
270.47
300.76
317.53
329.57
342.71
357.53
370.45
377.27
376.19
368.65
357.57
344.78
329.54
308.99
279.91
241.03
194.16
143.85
95.55
53.35
18.49
-10.84
-38.22
-66.88
-97.87
-129.46
-157.94
-179.33
-191.37
-194.76
-192.79
-190.47
-192.91
-203.81
-224.46
-252.82
-283.69
-309.43
-322.24
-316.83
-293.04
-256.74
-218.30
-188.84
-176.01
-180.90
-198.17
-218.60
-233.26
-236.95
-229.25
-213.76
-195.53
-179.08
-167.29
-161.36
-161.52
-167.48
-178.64
-193.37
-208.73
-220.68
-224.79
-217.66
-198.01
-167.16
-128.79
-87.69
-48.59
-14.98
11.39
30.51
43.59
52.25
57.82
61.10
62.25
61.20
57.79
52.24
45.14
37.35
29.98
23.79
19.23
16.04
13.54
10.86
7.42
3.29
-0.93
-4.32
-6.18
-6.63
-6.33
-6.18
-6.59
-7.06
-6.65
-4.50
-0.76
3.37
6.30
6.96
5.53
3.27
1.70
1.41
1.59
0.49
-3.67
-11.13
-20.50
-29.38
-35.73
-39.37
-41.99
-46.33
-54.38
-66.29
-80.02
-92.25
-99.93
-101.09
-94.93
-81.38
-60.56
-33.44
-2.62
27.31
50.30
61.52
59.51
47.37
31.61
19.19
14.57
18.12
27.17
38.23
49.03
59.15
69.06
78.92
88.13
95.97
102.84
110.27
120.19
133.38
149.08
165.23
179.88
192.33
202.93
211.99
218.33
218.72
209.23
187.37
154.44
116.02
79.82
52.62
36.80
29.13
22.14
7.92
-17.54
-52.00
-87.39
-113.55
-123.17
-115.28
-95.72
-74.35
-60.27
-57.91
-65.41
-75.95
-81.13
-74.58
-54.51
-24.41
8.10
33.79
45.09
38.73
17.44
-10.95
-36.13
-49.26
-46.24
-29.20
-5.63
15.26
26.35
25.71
16.91
7.12
3.77
11.33
29.65
54.20
77.91
93.51
95.93
83.58
58.91
27.42
-4.25
-30.93
-51.05
-67.06
-83.63
-104.21
-127.76
-147.98
-155.77
-143.97
-111.66
-65.70
-18.27
18.11
35.79
34.77
21.25
3.81
-11.46
-23.46
-35.69
-52.65
-75.79
-101.46
-122.11
-130.41
-123.67
-106.40
-88.84
-82.39
-93.96
-122.32
-158.13
-187.76
-199.04
-186.10
-151.37
-103.94
-55.45
-15.45
11.54
26.46
33.63
37.26
39.21
38.43
32.24
18.69
-1.83
-26.23
-50.06
-69.51
-83.04
-91.62
-97.56
-102.60
-106.42
-106.43
-98.85
-80.61
-50.96
-12.06
31.56
74.21
110.55
136.74
151.35
155.66
153.38
149.58
149.07
154.79
166.77
182.39
198.09
211.01
220.44
227.58
234.45
242.10
249.56
254.00
251.74
239.72
216.46
182.65
140.87
94.98
49.48
8.87
-23.00
-43.36
-50.99
-46.36
-31.46
-9.34
16.42
42.23
64.81
81.38
89.96
89.48
79.94
62.20
37.65
7.84
-25.84
-62.06
-99.45
-136.58
-171.81
-203.23
-228.57
-245.21
-250.77
-243.77
-224.55
-195.81
-162.26
-129.69
-103.57
-87.75
-83.67
-90.09
-103.42
-118.21
-128.25
-127.76
-112.48
-80.64
-33.38
25.22
88.63
148.89
197.92
229.18
239.22
228.59
201.61
164.83
125.12
87.95
56.78
33.53
19.22
14.34
18.02
27.61
38.74
46.38
46.68
38.26
22.48
2.35
-18.81
-38.55
-55.63
-69.53
-79.94
-86.57
-89.36
-88.83
-86.12
-82.71
-80.10
-79.50
-81.99
-88.47
-99.33
-113.74
-129.04
-141.08
-145.70
-140.78
-127.95
-112.40
-100.70
-97.24
-101.82
-108.99
-110.22
-97.49
-66.93
-20.53
34.32
87.36
129.07
153.66
160.89
155.68
145.89
139.15
140.08
149.14
163.43
178.53
190.31
195.67
192.34
178.45
152.81
116.14
72.05
26.96
-11.65
-38.05
-50.21
-50.21
-42.73
-32.61
-23.41
-16.89
-13.65
-13.86
-17.35
-23.59
-31.64
-40.40
-49.02
-57.00
-63.96
-69.04
-70.65
-67.06
-57.42
-42.96
-27.00
-14.13
-8.29
-11.20
-21.81
-36.81
-51.93
-63.41
-68.94
-68.00
-61.64
-51.74
-40.53
-30.17
-22.76
-20.02
-22.80
-29.91
-37.32
-38.51
-26.53
2.49
46.27
95.57
136.83
157.72
152.43
124.50
85.03
47.37
21.28
9.17
6.82
6.94
3.75
-4.33
-15.18
-25.35
-32.82
-37.84
-41.79
-45.24
-46.65
-42.94
-31.47
-12.10
11.44
32.70
44.66
42.75
26.64
0.45
-28.95
-54.47
-71.08
-77.19
-74.55
-66.61
-56.64
-45.85
-33.02
-15.74
7.57
35.67
64.40
88.17
102.39
105.49
99.16
87.21
73.53
60.66
49.60
40.37
33.24
28.93
28.31
31.68
37.84
44.29
47.73
45.22
35.29
18.88
-0.60
-18.17
-28.88
-29.91
-21.85
-8.50
4.56
12.45
12.94
7.01
-1.76
-9.23
-12.32
-10.03
-3.42
5.19
13.26
18.88
21.22
20.56
18.23
16.05
15.86
18.74
24.50
31.67
37.65
39.80
36.23
26.69
12.79
-2.34
-14.91
-21.75
-21.24
-14.03
-2.89
8.40
16.37
19.27
17.46
12.68
6.85
0.99
-4.80
-10.64
-16.04
-19.69
-20.08
-16.55
-9.95
-2.38
3.65
6.11
4.31
-1.23
-9.01
-17.02
-23.39
-26.53
-25.63
-20.88
-13.37
-4.81
3.20
9.75
14.80
18.73
21.84
24.07
25.03
24.61
23.28
21.90
21.28
21.52
21.75
20.54
16.71
10.21
2.49
-4.10
-7.54
-7.28
-4.82
-3.27
-5.87
-14.56
-28.91
-46.00
-61.46
-70.73
-70.68
-60.48
-41.78
-18.12
6.23
27.32
42.51
50.87
52.91
50.12
44.06
35.92
26.63
17.03
8.43
2.28
-0.19
1.08
4.73
8.35
9.40
6.62
0.69
-5.92
-9.98
-9.01
-2.40
8.39
20.31
30.11
35.30
35.05
29.90
21.33
11.19
1.19
-7.24
-13.04
-15.47
-14.51
-10.99
-6.29
-2.20
-0.07
-0.56
-3.71
-9.06
-16.02
-23.78
-31.46
-37.96
-42.50
-44.91
-45.99
-47.03
-49.30
-53.28
-58.70
-64.74
-70.44
-74.57
-74.77
-67.65
-49.70
-19.83
18.54
57.35
86.49
98.34
91.34
70.83
46.26
26.31
15.41
12.98
15.59
20.28
26.28
34.50
45.26
56.59
64.29
63.78
52.83
32.94
8.77
-13.59
-29.39
-37.03
-38.88
-39.87
-45.12
-56.89
-72.57
-85.31
-86.89
-72.30
-42.70
-5.28
29.98
55.25
67.87
70.31
67.07
60.93
51.40
36.06
14.00
-11.63
-33.93
-45.09
-40.56
-21.29
7.03
36.40
60.02
74.17
78.23
73.49
61.77
44.54
22.62
-3.33
-32.38
-62.75
-91.87
-117.05
-136.08
-147.97
-152.78
-151.07
-143.31
-129.82
-111.30
-89.52
-67.64
-49.54
-38.23
-34.56
-36.57
-40.25
-41.63
-38.19
-30.16
-20.01
-11.34
-7.55
-10.75
-20.94
-35.82
-51.01
-60.81
-59.53
-43.33
-11.95
30.13
74.15
109.34
126.33
120.85
95.50
59.28
24.55
2.76
0.73
18.77
51.18
88.43
119.89
136.88
134.37
112.38
76.19
35.01
-0.13
-19.93
-20.01
-2.75
23.46
47.54
60.00
56.56
39.19
14.41
-9.91
-27.98
-37.36
-38.35
-32.10
-19.10
0.47
25.79
53.82
79.43
97.01
102.86
96.95
82.93
66.56
52.91
44.29
39.91
36.93
32.78
27.36
23.35
25.33
36.99
58.63
85.88
110.64
123.84
118.71
93.36
51.42
0.51
-50.35
-93.83
-125.87
-146.17
-156.94
-160.80
-159.51
-152.96
-139.99
-119.58
-92.23
-60.91
-31.00
-9.03
-0.53
-7.97
-29.43
-58.60
-86.70
-105.30
-109.06
-97.75
-75.66
-49.88
-27.28
-12.19
-5.44
-4.91
-7.10
-8.70
-7.46
-2.52
5.64
15.18
23.26
26.47
21.77
8.05
-13.14
-37.62
-60.06
-76.23
-84.59
-86.66
-85.68
-84.86
-85.51
-87.15
-88.70
-89.79
-91.81
-97.71
-110.91
-134.06
-167.62
-209.04
-252.90
-292.04
-319.58
-331.30
-327.18
-311.33
-290.09
-269.41
-252.69
-240.46
-231.46
-224.40
-219.09
-216.02
-215.55
-216.65
-217.04
-213.97
-205.68
-192.21
-175.31
-157.81
-142.20
-129.79
-120.32
-112.31
-103.89
-93.65
-81.10
-66.91
-52.34
-38.76
-27.05
-17.32
-8.99
-1.03
7.59
17.62
29.26
42.18
55.64
68.75
80.85
91.73
101.74
111.90
123.33
137.09
153.55
172.28
192.17
211.75
229.84
245.97
260.52
274.68
290.04
308.36
330.95
358.09
388.56
418.99
444.55
459.92
461.37
448.30
423.78
393.54
363.77
338.77
319.79
305.54
293.71
282.46
271.29
260.67
251.31
243.97
238.92
236.09
234.60
232.65
227.87
218.28
203.46
185.07
166.20
149.83
137.36
128.49
121.96
116.82
113.30
111.99
112.95
114.65
114.48
109.94
99.96
85.47
68.56
51.23
34.20
16.71
-2.54
-24.41
-48.20
-71.78
-92.34
-107.33
-115.77
-118.36
-117.07
-114.19
-111.39
-109.42
-108.21
-107.35
-106.45
-105.13
-103.04
-99.55
-93.87
-85.46
-74.21
-60.88
-46.48
-31.96
-17.36
-1.84
15.70
35.60
56.37
74.78
86.96
90.09
84.01
71.16
55.80
41.84
31.07
22.86
14.38
1.84
-18.72
-50.63
-95.62
-152.77
-217.60
-282.49
-338.53
-378.40
-399.16
-403.02
-396.13
-385.70
-376.97
-371.99
-369.74
-367.72
-363.45
-355.34
-342.73
-325.53
-304.00
-278.90
-251.51
-223.31
-195.33
-167.88
-140.32
-111.59
-81.02
-48.72
-15.97
15.48
44.20
70.02
94.56
121.35
154.88
198.79
253.78
315.83
375.93
421.96
442.36
430.31
386.87
321.42
249.42
187.71
149.22
138.74
151.46
175.22
195.27
199.84
184.12
150.94
108.38
65.46
28.73
0.83
-18.47
-30.02
-34.33
-31.59
-22.66
-9.64
4.95
19.25
32.85
46.07
58.48
67.75
69.67
60.12
37.29
3.38
-35.86
-73.41
-103.37
-122.61
-130.55
-128.18
-117.18
-99.52
-77.69
-54.89
-34.77
-20.71
-14.74
-17.17
-26.35
-39.22
-52.23
-61.98
-66.71
-66.67
-64.09
-62.30
-63.76
-68.80
-75.34
-80.12
-80.22
-75.20
-67.43
-59.72
-53.64
-48.52
-42.08
-32.65
-20.18
-5.24
10.70
27.11
45.47
69.01
100.79
141.70
189.13
238.14
285.34
328.13
365.70
399.08
430.18
460.59
490.55
518.40
541.70
560.12
572.10
574.33
561.69
528.62
471.25
389.89
289.58
164.67
22.80
-121.21
-251.40
-357.98
-439.67
-500.60
-543.60
-572.50
-588.23
-588.54
-573.66
-546.61
-511.77
-471.64
-426.63
-375.51
-317.37
-252.42
-181.37
-107.74
-36.63
26.48
76.74
110.43
125.71
122.65
104.16
76.50
46.26
19.08
-1.78
-15.80
-24.98
-32.70
-42.31
-55.86
-73.00
-92.19
-110.91
-125.83
-132.50
-126.15
-103.25
-63.46
-11.38
43.60
89.38
114.79
113.18
84.48
34.30
-28.58
-95.24
-157.90
-210.27
-247.26
-265.30
-263.47
-244.32
-213.60
-178.77
-146.70
-121.91
-105.79
-97.00
-92.36
-88.01
-80.94
-69.96
-56.39
-43.54
-35.06
-32.96
-36.17
-40.76
-41.40
-33.64
-15.85
10.89
43.62
79.04
114.21
145.95
170.84
185.54
188.65
182.04
170.43
158.85
148.94
137.33
117.58
84.98
41.54
-2.64
-32.68
-35.83
-8.13
42.89
100.57
145.98
165.05
153.57
117.96
71.91
30.46
4.19
-4.05
1.05
10.77
17.47
17.84
13.30
7.55
3.10
-0.36
-5.33
-13.75
-24.51
-33.02
-32.79
-18.81
9.72
48.47
89.29
123.49
145.02
152.86
151.09
146.93
147.54
156.56
172.73
190.43
202.48
203.37
191.76
170.78
146.35
124.74
110.15
103.98
105.36
112.59
124.46
140.79
162.08
188.65
219.77
253.49
287.02
317.35
341.96
359.07
367.70
367.46
358.43
341.05
316.04
284.40
247.22
205.40
159.78
110.96
59.74
7.26
-44.79
-94.43
-139.76
-179.42
-213.16
-241.85
-267.48
-293.02
-321.58
-355.21
-393.44
-432.18
-464.36
-481.79
-478.48
-453.55
-412.33
-365.40
-325.09
-301.31
-298.15
-312.64
-335.77
-355.44
-360.38
-343.53
-304.41
-249.64
-190.90
-141.73
-113.34
-111.86
-137.25
-183.92
-242.31
-301.01
-348.77
-376.41
-378.72
-355.71
-312.19
-256.34
-197.06
-140.61
-89.54
-43.12
0.20
40.28
74.39
97.95
106.74
98.95
76.37
43.74
7.56
-25.55
-50.28
-63.20
-63.11
-51.15
-30.19
-4.08
23.88
51.76
78.91
104.94
128.49
146.76
156.65
156.66
148.09
134.37
119.82
107.22
96.76
86.94
76.27
65.11
55.83
51.28
52.71
58.49
64.52
66.40
61.89
52.24
41.65
35.38
37.29
48.24
66.01
86.53
105.59
119.97
127.76
127.87
119.60
102.87
78.95
50.96
23.51
1.36
-12.37
-17.60
-16.84
-14.02
-12.45
-13.59
-17.03
-21.42
-25.59
-29.21
-32.26
-34.40
-34.60
-31.58
-24.98
-16.04
-7.63
-2.91
-4.05
-11.12
-22.34
-34.89
-45.85
-52.83
-53.96
-48.01
-34.66
-14.97
8.58
32.59
53.74
69.76
79.72
83.62
81.82
74.75
63.20
48.94
34.76
23.96
19.12
21.01
28.28
37.84
46.15
50.33
49.03
42.75
33.45
23.88
16.43
12.30
11.09
11.01
10.03
6.84
1.74
-3.50
-6.56
-5.76
-0.90
6.48
13.79
18.33
18.24
13.00
3.62
-7.84
-18.83
-27.01
-30.95
-30.35
-26.02
-19.43
-12.07
-5.16
0.62
4.95
7.85
9.47
10.25
10.70
11.28
12.04
12.53
11.97
9.60
5.18
-0.79
-7.06
-12.02
-14.21
-12.73
-7.52
0.61
10.16
19.26
26.08
29.43
28.87
24.82
18.22
10.14
1.43
-7.39
-16.04
-24.03
-30.44
-33.94
-33.37
-28.43
-20.13
-10.64
-2.34
3.14
5.73
6.56
7.00
7.65
7.99
6.97
4.07
0.10
-3.05
-3.37
0.03
6.37
13.65
19.66
23.14
24.18
23.81
23.30
23.41
24.07
24.58
24.09
22.19
19.08
15.60
12.69
11.03
10.56
10.61
10.16
8.35
4.68
-0.89
-8.01
-16.01
-23.78
-29.71
-31.89
-28.80
-20.20
-7.73
5.39
15.55
20.28
19.43
15.02
10.12
7.32
7.44
9.56
11.84
12.77
12.11
10.76
10.13
11.17
13.75
16.71
18.48
17.85
14.69
9.91
5.16
2.05
1.48
3.41
7.01
11.11
14.56
16.51
16.47
14.39
10.84
7.11
5.01
6.15
10.85
17.36
22.01
20.71
10.93
-6.48
-27.09
-44.43
-52.56
-48.63
-33.93
-13.04
8.22
25.25
35.88
40.43
40.63
38.23
34.36
29.64
24.68
20.41
17.64
16.55
16.00
13.84
8.10
-1.89
-14.91
-28.35
-39.67
-47.62
-52.39
-54.73
-54.78
-51.57
-43.89
-31.72
-17.11
-3.95
3.96
4.76
-0.30
-7.70
-13.40
-14.81
-11.73
-5.86
0.51
5.72
9.27
11.39
12.62
13.36
13.63
13.46
12.77
11.37
9.19
6.23
2.78
-0.47
-2.64
-3.13
-1.99
-0.10
1.06
0.22
-3.08
-8.07
-12.98
-15.75
-14.91
-10.24
-2.63
6.04
13.71
18.49
18.71
13.30
2.25
-12.74
-28.01
-38.68
-40.45
-31.66
-14.57
5.34
21.58
29.61
28.68
21.84
14.04
9.53
10.05
14.49
20.16
24.32
25.33
23.00
18.12
11.92
5.64
0.48
-2.33
-1.73
3.13
12.07
23.55
34.73
42.09
42.76
35.81
22.90
7.77
-5.08
-11.99
-11.26
-3.44
9.15
23.26
35.67
43.73
45.76
41.30
31.11
17.14
2.12
-10.92
-19.38
-21.89
-18.36
-10.19
0.36
10.96
19.67
25.59
28.74
29.96
30.43
31.12
32.54
34.60
36.71
38.08
38.05
36.65
34.58
33.12
33.65
36.77
42.18
48.44
53.76
56.67
56.57
53.84
49.16
43.03
35.38
25.67
13.64
-0.81
-17.29
-35.54
-55.43
-76.33
-96.96
-115.05
-128.18
-134.98
-136.08
-134.00
-132.07
-132.38
-134.51
-135.54
-131.65
-120.05
-100.79
-76.59
-51.40
-28.96
-11.25
1.24
8.98
12.54
12.31
9.15
4.80
2.23
4.64
13.98
30.03
49.93
69.96
86.70
98.17
103.96
104.28
99.51
90.21
77.71
64.47
53.82
49.10
52.77
65.72
87.15
114.66
144.90
173.88
197.91
214.80
224.25
228.36
230.20
232.28
234.91
235.67
230.14
213.51
182.80
138.50
85.35
31.77
-12.38
-38.70
-43.46
-29.33
-4.67
19.26
32.39
29.16
9.69
-21.32
-57.47
-93.23
-125.31
-152.53
-174.72
-191.97
-204.89
-215.33
-226.80
-243.53
-268.46
-300.58
-334.22
-360.18
-369.38
-356.60
-322.60
-273.46
-217.38
-161.30
-108.81
-60.62
-16.60
22.43
53.97
75.07
84.29
82.42
72.35
57.59
40.83
23.57
6.53
-9.34
-22.31
-30.22
-31.47
-26.09
-15.72
-3.17
8.77
18.35
24.88
28.70
30.18
29.54
26.89
22.73
18.26
15.06
14.32
15.91
17.91
17.32
10.91
-3.04
-24.08
-49.53
-75.18
-96.93
-111.88
-119.08
-119.24
-113.89
-104.49
-92.10
-77.52
-61.79
-46.46
-33.39
-23.73
-17.28
-12.24
-5.94
3.59
16.80
32.12
46.85
58.51
65.84
69.16
69.61
68.40
66.10
62.61
57.75
51.56
44.77
38.38
33.19
29.45
26.37
22.75
17.39
10.09
1.98
-4.73
-7.73
-5.78
0.70
9.93
19.56
28.26
35.99
43.89
53.28
64.22
75.44
84.49
89.00
87.70
80.88
70.22
57.96
46.14
36.04
28.02
21.92
17.11
13.29
10.26
7.92
6.20
4.50
2.16
-1.36
-5.94
-10.95
-15.69
-19.93
-23.93
-27.67
-29.97
-28.76
-21.62
-7.81
10.89
30.69
47.31
58.21
63.26
64.16
62.75
59.82
55.09
48.24
40.06
32.53
27.81
27.09
29.51
33.40
37.12
39.97
42.32
44.22
44.57
40.89
30.47
11.91
-13.87
-43.68
-73.63
-100.46
-122.56
-140.10
-153.45
-162.42
-165.64
-161.19
-148.19
-127.89
-104.01
-81.60
-65.12
-56.54
-54.68
-56.00
-56.44
-53.42
-46.83
-38.38
-30.65
-24.87
-20.35
-15.21
-7.36
3.42
15.11
24.27
27.99
25.70
19.66
13.82
11.49
13.56
17.94
20.49
17.72
8.46
-5.30
-19.30
-29.47
-33.51
-31.70
-26.17
-19.45
-13.59
-10.03
-9.60
-12.20
-16.62
-20.71
-21.93
-19.23
-13.88
-9.73
-12.01
-24.72
-48.75
-81.15
-115.93
-145.86
-164.58
-168.14
-156.09
-132.03
-102.92
-77.15
-62.14
-61.07
-71.63
-86.99
-98.18
-97.32
-79.23
-42.00
13.27
82.53
158.54
231.22
288.65
320.13
319.65
288.34
235.08
174.33
121.86
90.10
84.63
103.43
138.95
181.56
223.02
258.08
284.25
300.20
304.43
295.19
271.50
234.88
189.53
141.16
94.68
52.52
14.13
-23.00
-61.75
-104.33
-152.05
-205.81
-266.35
-333.21
-403.76
-472.26
-530.19
-568.63
-581.30
-567.06
-530.40
-479.54
-423.32
-368.25
-317.54
-271.85
-231.13
-196.08
-168.15
-148.51
-136.76
-130.59
-126.55
-121.45
-113.65
-103.48
-92.86
-83.97
-77.87
-73.83
-69.43
-61.55
-47.80
-27.69
-3.09
22.58
45.67
63.90
77.33
88.37
101.00
119.75
148.61
190.17
244.45
308.22
374.71
434.76
479.28
502.03
501.59
481.46
448.04
407.75
364.70
319.80
271.50
217.25
155.23
85.51
10.83
-63.48
-130.23
-182.05
-213.57
-223.13
-213.08
-188.26
-154.05
-114.80
-73.81
-34.44
-0.86
22.39
32.83
32.32
27.54
27.60
39.24
62.63
90.26
110.06
111.31
90.40
53.07
11.79
-19.81
-32.63
-24.84
-0.78
32.07
65.77
92.91
106.10
98.22
64.31
4.71
-72.82
-154.07
-222.67
-265.99
-279.27
-266.24
-236.12
-198.79
-161.30
-126.68
-95.12
-66.04
-39.38
-15.65
4.97
23.16
40.65
59.29
80.00
102.11
123.26
140.17
150.13
152.14
147.68
140.24
134.08
132.59
136.90
145.74
156.24
165.52
172.12
176.72
181.72
189.92
202.95
220.28
239.14
255.66
266.58
270.48
268.28
262.31
254.85
246.56
236.15
221.07
199.10
169.64
134.02
94.75
54.00
12.66
-29.45
-72.51
-115.24
-154.49
-186.05
-206.32
-214.09
-210.96
-200.79
-187.94
-175.71
-165.45
-156.77
-148.40
-139.25
-129.02
-118.21
-107.65
-98.03
-89.48
-81.60
-73.78
-65.55
-57.06
-48.94
-42.02
-36.83
-33.26
-30.58
-27.94
-24.77
-21.17
-17.66
-14.93
-13.23
-12.31
-11.48
-9.91
-7.25
-3.69
-0.07
2.69
3.98
3.89
3.07
2.42
2.50
3.29
4.13
4.30
3.30
1.23
-1.29
-3.60
-5.21
-6.08
-6.40
-6.39
-6.07
-5.39
-4.21
-2.53
-0.55
1.44
3.08
4.01
4.18
3.71
2.91
2.17
1.72
1.63
1.78
2.02
2.26
2.52
2.88
3.42
4.15
4.99
5.83
6.50
6.88
6.93
6.70
6.23
5.55
4.56
3.16
1.26
-1.07
-3.54
-5.67
-7.04
-7.39
-6.75
-5.32
-3.41
-1.19
1.21
3.71
6.16
8.29
9.80
10.43
10.04
8.66
6.59
4.31
2.37
1.27
1.29
2.42
4.26
6.15
7.37
7.37
5.87
2.98
-0.93
-5.29
-9.44
-12.73
-14.61
-14.80
-13.32
-10.54
-7.11
-3.78
-1.19
0.26
0.55
-0.06
-1.07
-1.95
-2.22
-1.62
-0.14
1.89
3.97
5.54
6.27
6.08
5.13
3.69
1.97
0.07
-1.94
-3.82
-5.22
-5.71
-5.08
-3.42
-1.13
1.18
3.07
4.32
5.01
5.37
5.51
5.41
4.81
3.49
1.36
-1.34
-4.12
-6.43
-7.89
-8.51
-8.54
-8.37
-8.18
-7.82
-6.93
-5.21
-2.69
0.17
2.73
4.48
5.34
5.63
5.85
6.31
7.00
7.63
7.87
7.70
7.39
7.41
8.02
9.09
10.05
10.12
8.69
5.66
1.50
-2.96
-6.88
-9.76
-11.53
-12.52
-13.10
-13.50
-13.67
-13.44
-12.70
-11.58
-10.39
-9.42
-8.70
-7.89
-6.49
-4.13
-0.95
2.46
5.31
7.00
7.48
7.21
6.89
7.14
8.20
9.97
12.14
14.37
16.29
17.54
17.69
16.46
13.82
10.18
6.17
2.43
-0.70
-3.29
-5.53
-7.47
-8.74
-8.69
-6.77
-2.87
2.43
8.09
13.02
16.52
18.38
18.86
18.25
16.70
14.15
10.53
6.09
1.35
-2.97
-6.31
-8.53
-9.91
-10.95
-12.00
-13.02
-13.60
-13.15
-11.43
-8.72
-5.93
-4.26
-4.61
-7.25
-11.60
-16.55
-20.81
-23.47
-24.29
-23.55
-21.83
-19.64
-17.22
-14.72
-12.33
-10.54
-9.83
-10.45
-12.03
-13.55
-13.75
-11.72
-7.33
-1.47
4.58
9.55
12.87
14.72
15.69
16.41
17.04
17.38
17.01
15.69
13.58
11.10
8.82
7.00
5.64
4.42
2.88
0.82
-1.63
-3.96
-5.48
-5.75
-4.74
-2.96
-1.15
0.02
0.21
-0.49
-1.75
-3.24
-4.73
-6.20
-7.53
-8.58
-8.87
-7.95
-5.56
-1.86
2.40
6.19
8.55
8.96
7.59
5.28
3.09
1.92
2.08
3.26
4.65
5.49
5.33
4.29
2.90
1.73
1.12
0.91
0.66
-0.09
-1.53
-3.42
-5.25
-6.53
-6.95
-6.65
-5.96
-5.41
-5.33
-5.81
-6.61
-7.26
-7.36
-6.80
-5.75
-4.61
-3.71
-3.08
-2.43
-1.36
0.28
2.29
4.01
4.84
4.45
3.09
1.46
0.26
-0.08
0.39
1.26
2.05
2.48
2.53
2.30
1.96
1.61
1.17
0.62
-0.11
-0.93
-1.71
-2.35
-2.80
-3.17
-3.60
-4.19
-4.90
-5.52
-5.80
-5.50
-4.56
-3.15
-1.53
-0.08
1.01
1.69
2.06
2.32
2.60
3.00
3.47
3.97
4.42
4.79
5.06
5.30
5.60
6.05
6.59
7.10
7.28
6.92
5.97
4.66
3.44
2.66
2.48
2.69
2.83
2.52
1.63
0.39
-0.83
-1.70
-2.20
-2.62
-3.29
-4.44
-5.99
-7.58
-8.73
-9.07
-8.47
-7.10
-5.33
-3.57
-2.16
-1.24
-0.73
-0.36
0.13
0.86
1.72
2.47
2.95
3.16
3.32
3.68
4.33
5.10
5.60
5.54
4.87
3.91
3.09
2.70
2.72
2.74
2.34
1.32
-0.16
-1.63
-2.63
-2.88
-2.47
-1.76
-1.18
-1.01
-1.39
-2.24
-3.41
-4.68
-5.81
-6.55
-6.75
-6.32
-5.33
-4.03
-2.66
-1.48
-0.61
-0.07
0.25
0.56
0.98
1.61
2.40
3.26
4.05
4.64
4.96
4.96
4.63
3.97
3.03
1.97
1.04
0.44
0.23
0.26
0.23
-0.11
-0.87
-1.88
-2.87
-3.65
-4.26
-4.85
-5.57
-6.40
-7.10
-7.43
-7.34
-7.07
-6.99
-7.37
-8.17
-8.97
-9.18
-8.34
-6.37
-3.68
-0.89
1.39
2.84
3.51
3.72
3.81
3.99
4.25
4.44
4.47
4.34
4.17
4.09
4.07
3.88
3.26
2.00
0.21
-1.74
-3.32
-4.06
-3.90
-3.10
-2.21
-1.72
-1.94
-2.80
-3.94
-4.98
-5.60
-5.76
-5.66
-5.54
-5.56
-5.70
-5.73
-5.42
-4.70
-3.82
-3.19
-3.24
-4.10
-5.47
-6.72
-7.10
-6.23
-4.26
-1.83
0.25
1.39
1.48
0.88
0.24
0.07
0.54
1.35
2.03
2.18
1.77
1.10
0.60
0.56
0.91
1.28
1.24
0.60
-0.49
-1.58
-2.21
-2.15
-1.55
-0.85
-0.52
-0.78
-1.55
-2.42
-2.93
-2.81
-2.11
-1.18
-0.47
-0.28
-0.60
-1.28
-2.05
-2.76
-3.43
-4.12
-4.73
-4.99
-4.51
-3.01
-0.53
2.54
5.62
8.06
9.54
10.00
9.68
8.99
8.19
7.47
6.78
6.08
5.35
4.66
4.16
3.97
4.14
4.53
4.86
4.92
4.52
3.71
2.72
1.83
1.27
1.07
1.03
0.89
0.43
-0.33
-1.17
-1.83
-2.08
-1.98
-1.76
-1.77
-2.19
-3.07
-4.25
-5.47
-6.64
-7.70
-8.69
-9.50
-9.91
-9.58
-8.27
-6.06
-3.34
-0.73
1.13
1.88
1.57
0.61
-0.38
-0.98
-0.98
-0.56
-0.05
0.31
0.46
0.59
0.92
1.54
2.39
3.15
3.58
3.52
3.11
2.54
2.09
1.87
1.86
1.94
2.02
2.06
2.06
2.04
2.03
2.05
2.09
2.08
1.86
1.30
0.28
-1.22
-0.00
-0.00
-0.00
-0.00
-0.00
-0.00
-0.00
-0.00
-0.00
-0.00
0.00
0.01
0.01
-0.00
-0.03
-0.05
-0.05
0.00
0.13
0.36
0.66
1.01
1.37
1.72
2.06
2.40
2.79
3.24
3.80
4.42
5.06
5.66
6.20
6.68
7.15
7.68
8.31
9.14
10.09
11.04
11.88
12.56
13.14
13.76
14.65
15.96
17.91
20.32
22.90
25.38
27.58
29.57
31.68
34.32
37.81
42.54
48.15
54.10
59.83
64.97
69.58
74.14
79.34
85.71
93.76
103.00
112.62
121.73
129.77
136.75
143.30
150.75
157.77
166.64
177.95
191.79
206.97
220.57
228.25
225.36
208.53
176.87
132.76
80.05
23.07
-34.94
-92.44
-149.16
-205.23
-260.37
-313.74
-363.88
-409.83
-450.91
-486.49
-515.72
-537.20
-549.17
-549.89
-538.27
-514.07
-478.49
-433.65
-382.17
-326.69
-269.45
-212.17
-156.14
-102.36
-51.71
-5.17
36.38
72.31
102.31
126.55
145.52
159.94
170.51
177.86
182.37
184.35
184.02
181.65
177.59
172.25
166.04
159.31
152.30
145.16
137.95
130.73
123.53
116.42
109.46
102.74
96.31
90.18
84.39
78.94
73.85
69.12
64.76
60.79
57.19
53.98
51.14
48.66
46.56
44.83
43.47
42.47
41.80
41.43
41.26
41.21
41.11
40.81
40.11
38.85
36.87
34.06
30.38
25.88
20.60
14.72
8.49
2.15
-4.01
-9.73
-14.76
-18.94
-22.16
-24.37
-25.59
-25.90
-25.42
-24.31
-22.71
-20.75
-18.58
-16.26
-13.87
-11.43
-8.99
-6.56
-4.15
-1.77
0.60
2.98
5.40
7.89
10.50
13.19
15.98
18.87
21.87
24.99
28.26
31.71
35.36
39.28
43.36
47.54
51.80
56.13
60.52
65.03
69.69
74.58
79.81
85.26
90.86
96.57
102.37
108.24
114.17
120.16
126.22
132.37
138.31
143.79
148.55
152.37
154.93
155.87
154.68
150.67
145.20
138.82
131.85
124.56
117.13
109.71
102.43
95.40
88.75
82.64
76.89
71.39
66.08
60.94
55.96
51.18
46.60
42.31
38.35
34.57
30.86
27.17
23.51
19.92
16.48
13.27
10.38
7.89
5.69
3.74
1.97
0.38
-1.02
-2.24
-3.27
-4.16
-4.97
-5.87
-7.01
-8.44
-10.14
-11.99
-13.84
-15.57
-17.13
-18.60
-20.18
-22.06
-24.36
-27.03
-29.87
-32.63
-35.14
-37.43
-39.79
-42.67
-46.51
-51.55
-57.68
-64.46
-71.36
-77.95
-84.18
-90.44
-97.41
-105.77
-115.87
-127.59
-140.34
-153.36
-166.04
-178.21
-190.16
-202.51
-216.18
-232.14
-251.35
-274.28
-300.25
-327.04
-350.83
-367.20
-372.52
-365.32
-346.90
-320.73
-291.08
-261.47
-233.88
-208.81
-186.09
-165.51
-147.21
-131.40
-117.88
-105.99
-94.78
-83.46
-71.81
-60.22
-49.48
-40.32
-33.08
-27.55
-23.02
-18.52
-13.25
-6.85
0.53
8.19
15.33
21.27
25.79
29.07
31.56
33.69
35.68
37.49
38.94
39.88
40.35
40.51
40.54
40.61
40.78
41.03
41.25
41.23
40.74
39.51
37.50
34.84
31.90
29.11
26.81
25.12
23.94
23.09
22.38
21.68
20.84
19.68
18.11
16.20
14.31
12.98
12.75
13.87
16.16
19.22
22.55
25.75
28.58
30.88
32.41
32.88
32.05
29.88
26.70
23.12
19.81
17.28
15.75
15.09
15.00
15.10
15.14
15.03
14.86
14.72
14.66
14.58
14.29
13.59
12.41
10.87
9.17
7.58
6.17
4.90
3.55
1.88
-0.19
-2.52
-4.81
-6.64
-7.57
-7.33
-5.84
-3.22
0.18
3.85
7.29
10.06
11.95
12.95
13.27
13.24
13.14
13.17
13.35
13.63
13.96
14.31
14.69
15.05
15.32
15.40
15.17
14.60
13.74
12.63
11.34
9.93
8.51
7.27
6.36
5.83
5.47
4.92
3.78
1.90
-0.52
-3.05
-5.23
-6.74
-7.51
-7.66
-7.21
-6.10
-4.15
-1.29
2.27
6.02
9.28
11.49
12.40
12.15
11.14
9.85
8.69
7.98
7.83
8.29
9.21
10.38
11.50
12.26
12.50
12.19
11.37
10.19
8.74
7.04
5.17
3.18
1.11
-1.11
-3.62
-6.57
-9.86
-12.96
-14.99
-14.91
-12.05
-6.40
1.25
9.58
17.13
22.76
25.94
26.71
25.47
22.84
19.39
15.73
12.47
10.16
9.24
9.76
11.38
13.34
14.80
15.07
13.98
11.83
9.33
7.24
6.05
5.82
6.16
6.50
6.27
5.24
3.43
1.18
-1.13
-3.19
-4.82
-5.99
-6.73
-7.12
-7.22
-7.13
-6.92
-6.63
-6.27
-5.75
-4.96
-3.85
-2.42
-0.83
0.73
2.08
3.07
3.59
3.62
3.20
2.48
1.76
1.38
1.60
2.49
3.79
5.04
5.72
5.50
4.45
2.94
1.46
0.41
-0.08
-0.14
-0.02
0.01
-0.24
-0.89
-2.06
-3.77
-5.90
-8.18
-10.14
-11.26
-11.19
-9.91
-7.70
-5.08
-2.55
-0.35
1.54
3.32
5.12
6.92
8.46
9.51
9.92
9.82
9.49
9.19
8.96
8.65
8.01
6.88
5.34
3.55
1.70
-0.11
-1.85
-3.45
-4.72
-5.45
-5.56
-5.22
-4.83
-4.80
-5.33
-6.25
-7.09
-7.32
-6.57
-4.80
-2.24
0.78
3.99
7.17
10.06
12.26
13.22
12.39
9.60
5.27
0.46
-3.42
-5.11
-3.98
-0.30
4.91
10.21
14.29
16.28
15.98
13.81
10.58
7.33
4.97
4.13
4.86
6.66
8.49
9.14
7.69
3.89
-1.65
-7.59
-12.33
-14.50
-13.45
-9.24
-2.51
5.73
14.37
22.35
28.62
32.39
33.28
31.46
27.75
23.27
19.18
16.14
14.24
13.00
11.71
9.76
6.89
3.29
-0.51
-3.77
-5.88
-6.50
-5.80
-4.39
-3.08
-2.55
-3.14
-4.74
-6.99
-9.47
-11.80
-13.63
-14.52
-13.97
-11.55
-7.24
-1.62
4.24
9.16
12.33
13.66
13.75
13.43
13.30
13.29
12.91
11.50
8.81
5.21
1.48
-1.52
-3.33
-4.05
-4.19
-4.34
-4.87
-5.81
-6.93
-7.92
-8.59
-8.93
-9.07
-9.20
-9.54
-10.19
-11.18
-12.39
-13.61
-14.52
-14.87
-14.48
-13.28
-11.41
-9.14
-6.82
-4.82
-3.35
-2.39
-1.63
-0.67
0.78
2.71
4.77
6.46
7.41
7.63
7.43
7.26
7.42
7.93
8.58
9.13
9.45
9.56
9.55
9.40
9.00
8.17
6.86
5.20
3.41
1.69
0.06
-1.67
-3.78
-6.44
-9.48
-12.41
-14.56
-15.33
-14.48
-12.24
-9.18
-5.97
-3.10
-0.76
1.15
2.83
4.46
5.99
7.25
8.03
8.26
8.04
7.66
7.49
7.77
8.55
9.64
10.64
11.23
11.21
10.56
9.46
8.07
6.52
4.84
3.09
1.40
0.03
-0.79
-1.09
-1.20
-1.65
-2.90
-4.98
-7.45
-9.46
-10.21
-9.30
-6.91
-3.72
-0.52
2.14
4.16
5.77
7.24
8.67
9.88
10.50
10.41
9.67
8.69
7.93
7.64
7.80
8.10
8.26
8.11
7.75
7.35
7.05
6.83
6.54
5.99
5.05
3.70
1.97
-0.06
-2.36
-4.84
-7.48
-10.20
-12.87
-15.33
-17.32
-18.52
-18.60
-17.33
-14.71
-11.03
-6.88
-2.96
0.13
2.10
3.06
3.37
3.46
3.59
3.78
3.90
3.84
3.66
3.68
4.33
5.84
8.09
10.61
12.79
14.08
14.31
13.57
12.22
10.59
8.92
7.26
5.60
3.94
2.25
0.51
-1.35
-3.39
-5.62
-7.96
-10.21
-12.07
-13.28
-13.56
-12.76
-10.90
-8.25
-5.33
-2.77
-1.10
-0.53
-0.86
-1.61
-2.22
-2.36
-2.01
-1.39
-0.75
-0.15
0.58
1.66
3.20
5.02
6.74
7.87
8.14
7.57
6.42
5.09
3.85
2.75
1.64
0.28
-1.55
-3.81
-6.39
-9.01
-11.43
-13.40
-14.72
-15.16
-14.54
-12.75
-9.82
-6.02
-1.77
2.36
5.86
8.31
9.53
9.55
8.64
7.27
5.91
4.94
4.43
4.27
4.27
4.30
4.42
4.76
5.46
6.41
7.30
7.76
7.51
6.51
5.04
3.47
2.18
1.38
0.95
0.52
-0.43
-2.30
-5.27
-9.07
-13.05
-16.43
-18.51
-18.97
-17.81
-15.33
-11.96
-8.10
-4.18
-0.69
1.92
3.34
3.66
3.36
3.12
3.47
4.53
5.98
7.22
7.86
7.89
7.73
8.04
9.27
11.36
13.65
15.16
14.91
12.47
8.12
2.79
-2.26
-5.99
-7.87
-8.09
-7.36
-6.59
-6.53
-7.50
-9.28
-11.35
-12.92
-13.36
-12.26
-9.52
-5.48
-0.69
4.15
8.32
11.41
13.23
14.04
14.33
14.70
15.53
16.78
18.04
18.62
18.03
16.29
14.08
12.42
12.26
13.92
16.90
19.98
21.84
21.48
18.88
14.77
10.41
6.96
4.94
4.20
4.02
3.78
3.14
2.26
1.52
1.27
1.71
3.03
5.50
9.49
14.97
21.02
25.79
27.02
23.29
14.82
3.73
-6.87
-14.30
-17.49
-17.26
-15.49
-13.89
-13.17
-12.86
-12.15
-10.52
-8.26
-6.16
-4.98
-4.91
-5.54
-6.23
-6.36
-5.78
-4.79
-3.89
-3.52
-3.85
-4.75
-5.92
-7.05
-7.99
-8.74
-9.31
-9.77
-10.11
-10.30
-10.28
-9.95
-9.14
-7.68
-5.53
-2.88
-0.17
2.09
3.53
4.16
4.30
4.44
4.99
6.05
7.45
8.89
10.12
11.05
11.75
12.23
12.44
12.27
11.57
10.33
8.68
6.85
5.11
3.61
2.40
1.41
0.52
-0.38
-1.49
-2.96
-4.93
-7.38
-10.06
-12.50
-14.12
-14.45
-13.39
-11.19
-8.44
-5.69
-3.39
-1.68
-0.55
0.15
0.56
0.79
0.95
1.18
1.65
2.50
3.82
5.51
7.30
8.85
9.78
9.89
9.18
7.87
6.28
4.72
3.38
2.30
1.42
0.65
-0.13
-1.04
-2.21
-3.78
-5.69
-7.68
-9.27
-9.98
-9.57
-8.13
-6.12
-4.09
-2.48
-1.34
-0.45
0.58
2.01
3.80
5.66
7.19
8.11
8.35
8.11
7.68
7.34
7.19
7.14
6.96
6.43
5.45
4.08
2.55
1.00
-0.47
-1.93
-3.54
-5.41
-7.51
-9.71
-11.75
-13.40
-14.48
-14.84
-14.47
-13.34
-11.53
-9.23
-6.71
-4.34
-2.42
-1.08
-0.22
0.46
1.31
2.52
3.99
5.39
6.33
6.62
6.36
5.91
5.69
5.89
6.36
6.72
6.63
6.00
5.04
4.10
3.44
3.08
2.82
2.38
1.51
0.16
-1.65
-3.78
-6.08
-8.41
-10.49
-12.04
-12.70
-12.23
-10.60
-8.07
-5.10
-2.18
0.30
2.19
3.57
4.60
5.42
6.08
6.51
6.64
6.49
6.16
5.80
5.56
5.52
5.70
6.02
6.40
6.70
6.77
6.55
6.03
5.26
4.38
3.49
2.66
1.87
1.01
-0.07
-1.49
-3.33
-5.55
-7.94
-10.09
-11.50
-11.69
-10.52
-8.18
-5.32
-2.63
-0.63
0.57
1.26
1.86
2.67
3.75
4.94
6.04
7.00
7.90
8.82
9.70
10.33
10.43
9.87
8.79
7.50
6.39
5.70
5.45
5.43
5.36
5.02
4.28
3.17
1.77
0.20
-1.48
-3.21
-4.87
-6.38
-7.67
-8.69
-9.44
-9.94
-10.14
-9.99
-9.33
-8.04
-6.09
-3.68
-1.15
1.12
2.81
3.86
4.32
4.39
4.26
4.03
3.77
3.48
3.19
2.93
2.76
2.72
2.79
2.92
2.98
2.88
2.58
2.12
1.65
1.35
1.33
1.49
1.61
1.46
0.95
0.18
-0.56
-1.06
-1.27
-1.41
-1.80
-2.64
-3.91
-5.23
-6.16
-6.29
-5.45
-3.74
-1.44
1.06
3.42
5.35
6.68
7.38
7.49
7.21
6.76
6.37
6.21
6.35
6.69
7.08
7.37
7.48
7.37
7.09
6.69
6.19
5.66
5.12
4.60
4.03
3.33
2.38
1.16
-0.19
-1.53
-2.73
-3.79
-4.97
-6.47
-8.41
-10.57
-12.50
-13.66
-13.66
-12.44
-10.28
-7.61
-4.92
-2.58
-0.79
0.43
1.16
1.55
1.76
1.89
1.98
2.11
2.36
2.86
3.74
5.02
6.50
7.89
8.86
9.18
8.85
7.99
6.79
5.42
3.94
2.37
0.78
-0.78
-2.20
-3.44
-4.56
-5.71
-7.03
-8.56
-10.19
-11.60
-12.47
-12.52
-11.64
-9.87
-7.40
-4.48
-1.44
1.36
3.55
4.90
5.37
5.16
4.61
4.09
3.79
3.78
3.95
4.20
4.47
4.74
4.95
4.99
4.75
4.19
3.39
2.46
1.55
0.69
-0.16
-1.06
-1.99
-2.93
-3.87
-4.89
-6.09
-7.49
-8.91
-9.91
-10.03
-9.00
-6.93
-4.28
-1.63
0.59
2.28
3.59
4.76
5.85
6.73
7.15
6.94
6.13
5.01
3.91
3.11
2.70
2.66
2.89
3.29
3.75
4.12
4.22
3.90
3.13
2.05
0.90
-0.08
-0.80
-1.39
-2.17
-3.41
-5.22
-7.51
-9.95
-12.19
-13.87
-14.77
-14.77
-13.79
-11.86
-9.11
-6.02
-3.19
-1.29
-0.70
-1.28
-2.43
-3.31
-3.32
-2.31
-0.67
0.93
2.00
2.38
2.35
2.43
2.92
3.75
4.43
4.39
3.29
1.37
-0.74
-2.28
-2.77
-2.28
-1.47
-1.09
-1.89
-4.19
-7.83
-12.41
-17.27
-21.88
-25.68
-28.16
-28.81
-27.33
-23.81
-18.83
-13.49
-8.99
-6.13
-5.03
-4.81
-4.07
-1.58
3.26
9.58
15.50
18.47
16.39
8.68
-2.88
-14.17
-19.89
-15.53
0.46
25.28
52.91
76.10
89.54
91.88
85.61
75.56
66.17
59.92
57.06
56.64
57.82
60.35
64.36
69.55
74.78
78.48
79.10
76.07
69.78
61.13
51.02
39.32
25.09
7.09
-14.99
-39.63
-63.38
-81.88
-91.64
-91.55
-83.47
-71.75
-60.96
-54.50
-53.28
-55.91
-60.08
-63.61
-65.39
-65.21
-63.28
-59.83
-55.01
-49.26
-43.38
-38.62
-36.23
-36.69
-39.80
-44.18
-48.03
-49.82
-48.68
-45.07
-40.33
-36.09
-33.30
-31.64
-29.60
-25.28
-17.49
-6.49
5.96
17.21
25.17
28.92
29.05
27.17
24.66
22.16
19.29
15.39
10.16
4.25
-0.99
-4.20
-4.64
-2.62
0.60
3.58
5.18
5.14
4.00
2.48
1.17
0.07
-1.16
-2.95
-5.38
-8.13
-10.74
-12.80
-14.24
-15.28
-16.15
-17.08
-18.00
-18.72
-18.96
-18.47
-17.18
-15.04
-12.15
-8.64
-4.69
-0.50
3.72
7.71
11.22
14.00
15.86
16.83
17.00
16.66
16.11
15.55
15.16
14.76
14.00
12.40
9.67
6.03
2.26
-0.53
-1.41
-0.08
2.91
6.29
8.82
9.58
8.45
5.96
2.82
-0.34
-3.21
-5.74
-7.80
-9.07
-9.10
-7.53
-4.38
-0.12
4.21
7.62
9.07
8.31
5.60
1.63
-2.57
-6.39
-9.56
-12.14
-14.09
-15.13
-14.63
-12.01
-7.20
-0.86
5.60
10.31
11.93
9.84
4.54
-2.53
-9.88
-16.28
-21.27
-24.88
-27.32
-28.47
-27.73
-24.36
-17.89
-8.62
2.11
12.52
20.72
25.75
27.71
27.52
26.58
25.73
25.16
24.46
23.24
21.64
20.45
20.64
22.74
26.31
30.02
31.92
30.77
26.33
19.67
12.84
7.64
5.12
4.98
6.07
6.96
6.77
5.46
3.62
1.99
0.91
0.02
-1.27
-3.64
-7.02
-10.64
-13.44
-14.45
-13.63
-11.82
-10.32
-10.14
-11.37
-13.03
-13.65
-12.12
-8.24
-2.90
2.14
5.56
6.81
6.48
5.99
6.49
8.36
10.88
12.76
12.95
11.24
8.40
5.63
3.91
3.35
3.03
1.74
-1.65
-7.09
-13.53
-19.34
-22.89
-23.58
-21.92
-19.20
-16.67
-14.83
-13.33
-11.33
-8.29
-4.49
-0.91
1.01
0.58
-1.94
-5.31
-7.83
-8.41
-6.88
-4.08
-1.25
0.75
1.91
3.04
5.12
8.83
13.89
19.04
22.95
24.43
23.58
21.69
20.75
22.62
27.67
34.32
39.46
39.94
34.17
23.12
10.04
-1.22
-7.93
-9.68
-8.52
-7.13
-7.44
-9.49
-11.62
-12.00
-9.75
-5.70
-1.70
0.47
0.16
-1.95
-4.54
-6.33
-6.97
-7.23
-8.17
-10.66
-14.54
-18.58
-21.23
-21.13
-18.17
-13.38
-8.48
-4.93
-3.16
-2.45
-1.43
1.02
5.10
10.04
14.31
16.84
17.32
16.42
15.47
15.34
16.16
17.13
17.22
15.84
13.32
10.81
9.64
10.65
13.68
17.48
20.57
21.64
20.36
17.41
13.90
11.00
8.97
7.30
4.99
1.35
-3.50
-8.53
-12.26
-13.54
-12.21
-9.06
-5.73
-3.44
-2.71
-3.03
-3.19
-2.23
0.18
3.43
6.55
8.78
10.06
10.94
12.11
13.98
16.29
18.12
18.65
17.28
14.27
10.51
6.95
4.39
2.83
1.70
0.18
-2.18
-5.17
-8.02
-9.83
-10.24
-9.64
-8.93
-9.27
-10.88
-13.21
-15.01
-14.92
-12.62
-8.87
-5.34
-3.47
-3.65
-4.87
-5.34
-3.55
0.83
6.69
11.85
14.54
14.06
11.40
8.74
8.06
10.33
14.61
18.81
20.70
19.24
15.27
11.12
9.40
11.68
18.03
27.41
38.57
51.10
65.15
80.60
96.27
109.46
116.98
116.48
107.47
91.16
69.12
42.24
10.36
-26.51
-66.73
-106.58
-140.76
-164.75
-176.62
-177.70
-171.91
-163.44
-155.25
-148.05
-141.04
-133.16
-124.35
-115.78
-109.08
-105.41
-104.55
-104.87
-103.90
-99.23
-88.90
-71.82
-47.86
-18.29
14.39
46.99
76.53
101.10
120.03
133.60
142.14
145.61
143.76
136.66
125.94
114.53
105.95
102.56
104.00
107.23
107.55
101.11
86.90
67.54
48.25
34.49
29.68
33.44
42.05
50.14
53.43
50.21
41.65
30.38
18.64
7.21
-4.56
-17.43
-31.01
-43.10
-50.51
-50.54
-42.60
-28.63
-12.45
1.69
10.90
14.46
13.87
11.77
10.44
10.91
12.46
13.25
11.27
5.53
-3.40
-13.53
-22.50
-28.58
-31.32
-31.44
-30.05
-27.98
-25.51
-22.76
-20.27
-19.32
-21.51
-27.90
-38.30
-51.05
-63.67
-73.95
-80.91
-85.09
-88.16
-92.01
-97.72
-104.88
-111.66
-115.45
-114.14
-107.07
-95.49
-81.97
-69.33
-59.26
-51.92
-46.05
-39.94
-32.36
-22.65
-10.24
6.25
29.19
61.09
102.87
152.63
205.49
255.20
296.56
327.55
349.77
367.24
383.99
402.04
420.67
437.19
448.55
452.72
449.13
438.36
421.43
399.12
372.03
340.62
305.55
267.74
228.35
188.59
149.53
112.07
76.96
44.84
16.21
-8.68
-29.89
-47.87
-63.39
-77.37
-90.66
-103.86
-117.35
-131.29
-145.95
-161.77
-179.67
-201.08
-227.81
-261.22
-301.28
-345.62
-389.29
-425.43
-446.97
-449.02
-430.57
-395.51
-351.55
-307.95
-272.59
-249.37
-237.40
-232.10
-227.61
-219.30
-205.19
-185.91
-163.46
-140.04
-117.28
-96.07
-76.94
-60.11
-45.25
-31.13
-15.73
2.83
24.92
48.63
69.87
84.15
88.54
83.11
70.56
54.52
37.63
20.30
1.26
-20.89
-45.77
-70.20
-88.76
-95.64
-86.86
-61.93
-24.32
19.65
62.56
97.79
121.06
130.95
128.45
116.30
97.94
76.89
56.05
37.22
20.68
5.14
-11.52
-30.93
-52.94
-75.34
-94.63
-107.62
-112.81
-110.65
-102.93
-91.98
-80.18
-70.04
-64.15
-64.61
-71.92
-84.23
-97.56
-107.42
-111.05
-108.93
-104.69
-103.34
-108.70
-121.65
-139.69
-158.03
-171.52
-176.20
-170.20
-153.56
-127.66
-94.44
-56.13
-15.05
26.52
66.54
103.61
137.24
167.72
195.71
221.69
245.44
266.05
282.21
292.71
296.73
293.67
282.95
263.83
235.94
200.00
158.40
115.18
74.93
41.50
16.67
-0.07
-10.67
-16.98
-19.38
-16.53
-6.28
12.53
38.58
67.65
93.84
111.70
118.46
115.01
105.55
95.51
89.29
88.50
91.46
94.41
93.24
85.14
69.16
45.86
16.40
-18.07
-56.37
-96.62
-135.88
-170.20
-195.57
-209.15
-210.48
-202.01
-188.59
-176.34
-170.93
-175.99
-192.02
-215.84
-241.19
-260.23
-265.70
-252.94
-221.30
-174.54
-120.01
-66.70
-22.85
6.66
21.83
27.30
30.41
38.31
55.29
81.37
112.75
143.92
170.05
188.63
199.75
205.02
206.09
204.07
199.55
192.85
184.09
172.93
158.74
141.43
122.39
104.84
92.81
89.06
93.04
100.45
105.07
101.85
89.68
72.06
54.77
42.67
37.29
36.86
38.51
40.93
45.67
56.22
75.53
103.85
138.04
172.61
201.84
221.93
232.02
233.98
231.15
227.02
224.04
223.00
223.10
222.01
216.20
201.42
173.67
130.91
74.72
11.16
-49.85
-96.98
-120.81
-117.14
-88.72
-44.51
3.13
42.73
67.12
75.19
71.13
61.90
54.27
52.67
58.51
70.97
88.19
108.12
128.76
147.67
161.45
166.05
158.05
135.92
101.06
57.50
10.68
-34.50
-75.12
-110.77
-143.09
-174.40
-206.50
-240.14
-275.26
-311.50
-348.19
-383.83
-415.53
-439.26
-451.09
-449.25
-435.32
-413.63
-389.07
-364.49
-339.54
-311.75
-279.04
-241.94
-203.74
-168.64
-139.01
-114.11
-90.90
-66.52
-40.45
-15.02
6.19
20.75
29.13
34.69
41.76
53.44
70.24
89.90
108.59
122.45
129.03
127.84
120.32
108.47
93.89
76.88
57.09
35.19
14.38
0.02
-3.20
5.80
23.02
41.45
55.20
62.72
66.58
69.40
69.31
58.55
27.42
-28.84
-104.79
-185.38
-252.43
-293.41
-306.91
-301.66
-290.29
-282.12
-279.20
-277.46
-270.66
-254.56
-228.18
-192.99
-150.87
-103.42
-52.42
-1.49
43.56
76.40
92.62
91.98
78.36
57.86
35.98
16.10
-0.30
-12.22
-17.97
-15.69
-4.92
11.95
29.91
43.10
47.39
41.92
29.08
13.20
-1.01
-9.60
-9.42
1.80
25.28
60.18
102.74
146.25
181.98
201.11
197.04
167.30
114.76
47.20
-24.39
-88.48
-136.11
-163.08
-170.67
-164.48
-151.94
-139.58
-130.81
-125.38
-120.16
-110.99
-94.70
-70.14
-37.96
0.51
44.53
94.08
148.77
206.25
261.21
305.86
332.40
336.00
316.12
276.23
221.58
157.25
87.96
19.45
-39.74
-78.74
-87.86
-63.75
-13.01
48.35
100.03
124.65
113.72
69.65
3.75
-68.45
-132.21
-177.12
-198.83
-198.86
-183.31
-160.68
-139.42
-125.89
-123.28
-131.74
-149.02
-171.58
-195.24
-215.48
-228.22
-230.90
-223.41
-208.54
-191.03
-175.66
-165.51
-160.97
-160.21
-160.39
-159.30
-155.72
-149.22
-139.39
-125.35
-106.20
-81.44
-51.96
-20.04
11.25
39.01
61.03
75.74
82.06
79.36
68.08
50.65
31.83
18.12
15.67
27.98
54.60
90.78
129.08
161.47
181.76
187.29
179.49
162.75
142.28
121.68
102.10
82.38
60.99
37.81
14.93
-4.21
-16.84
-21.81
-20.17
-14.03
-5.54
3.70
12.33
18.61
20.69
17.45
9.52
-0.51
-9.03
-12.52
-8.64
3.32
22.70
47.33
73.53
96.41
110.90
113.60
104.76
89.13
74.94
70.97
83.19
112.12
152.89
196.95
235.25
260.85
269.87
261.65
237.93
202.46
160.54
118.58
82.94
58.26
46.16
44.79
49.80
56.29
60.50
60.80
57.33
50.96
42.43
32.06
20.06
7.18
-5.18
-15.04
-20.52
-20.49
-14.95
-5.06
7.37
20.26
32.08
42.04
50.31
57.56
64.01
68.86
70.10
65.61
54.48
38.38
21.54
9.25
5.73
12.52
28.26
50.12
75.44
102.52
130.11
156.16
177.24
189.35
189.98
179.64
162.14
142.77
125.79
112.57
101.20
87.60
67.44
37.77
-1.42
-46.81
-91.98
-129.10
-151.50
-156.34
-146.28
-128.47
-111.72
-102.63
-102.88
-109.04
-114.99
-115.35
-108.15
-95.37
-81.20
-69.69
-62.75
-59.92
-59.34
-59.36
-59.12
-58.66
-58.02
-56.62
-53.54
-48.25
-41.70
-36.28
-34.84
-39.42
-50.14
-65.63
-84.14
-104.95
-128.86
-157.18
-189.98
-224.49
-255.26
-276.16
-283.52
-278.44
-266.73
-256.03
-252.05
-255.13
-259.93
-258.23
-242.96
-211.73
-167.95
-119.61
-75.99
-44.60
-28.90
-27.36
-34.46
-42.16
-42.34
-29.37
-2.55
33.03
67.78
90.89
94.69
77.64
44.84
5.97
-28.55
-50.90
-57.67
-49.72
-30.66
-5.20
21.96
46.89
66.13
77.26
79.28
73.20
62.14
50.70
44.13
46.55
60.26
84.58
115.44
146.66
172.00
187.78
194.60
196.87
200.53
210.10
226.54
247.38
268.66
287.28
302.29
314.66
325.58
334.72
339.75
337.14
324.14
300.49
268.97
234.53
202.08
174.69
152.19
131.73
109.22
81.16
46.39
5.48
-39.63
-86.50
-132.29
-173.59
-206.43
-227.32
-234.72
-230.31
-218.87
-206.64
-198.59
-196.60
-198.60
-199.70
-194.45
-179.07
-152.78
-117.37
-75.67
-29.59
20.21
73.48
128.56
180.98
223.77
249.94
255.66
242.44
217.37
189.63
166.98
152.68
145.12
139.48
130.35
113.32
85.31
46.07
-2.72
-56.13
-105.98
-142.80
-159.30
-153.82
-131.36
-102.46
-76.15
-58.97
-52.59
-55.20
-64.40
-79.34
-100.72
-129.25
-165.58
-205.88
-247.90
-290.63
-334.18
-378.13
-419.91
-454.52
-476.38
-483.96
-475.61
-455.51
-429.30
-401.28
-372.49
-340.67
-302.64
-245.38
-186.88
-131.46
-86.82
-58.45
-47.26
-49.26
-57.65
-65.71
-69.69
-71.02
-69.52
-67.55
-66.61
-67.13
-69.72
-76.35
-90.29
-114.21
-148.95
-187.22
-218.84
-232.15
-218.65
-176.71
-112.37
-37.13
36.40
97.85
143.83
174.42
192.05
199.15
197.15
186.83
169.25
146.49
120.83
95.53
72.41
52.23
34.52
18.38
3.20
-10.97
-23.49
-33.69
-40.83
-45.09
-47.29
-48.68
-50.36
-52.92
-56.21
-59.56
-62.06
-63.10
-62.51
-60.56
-57.83
-54.79
-51.66
-48.33
-44.52
-39.95
-34.57
-28.55
-22.18
-15.76
-9.39
-2.98
3.59
10.42
17.40
24.28
30.71
36.48
41.65
46.60
51.86
57.93
64.99
72.83
80.91
88.66
95.78
102.40
109.16
116.89
126.24
137.37
149.78
162.59
174.90
186.20
196.65
206.97
218.25
231.65
248.34
269.08
293.85
321.32
348.54
371.39
385.65
388.55
379.88
362.14
339.53
316.21
294.92
276.30
259.30
242.24
223.84
203.79
182.77
162.04
143.00
126.58
113.00
101.69
91.70
82.42
73.92
66.90
62.03
59.03
56.34
51.42
42.14
28.09
11.09
-5.41
-17.92
-24.25
-24.25
-19.08
-10.23
1.28
14.56
27.92
38.21
41.50
34.76
17.92
-5.30
-28.41
-44.62
-49.78
-43.74
-29.96
-13.54
1.01
11.30
17.21
20.24
22.51
25.98
31.86
40.24
49.64
57.39
60.57
57.60
49.41
39.28
31.58
29.55
33.92
42.82
52.93
61.32
66.34
67.36
63.71
53.68
35.03
6.62
-29.56
-67.87
-100.76
-121.77
-128.50
-123.42
-112.37
-101.29
-93.39
-88.04
-81.95
-71.91
-56.90
-38.83
-21.44
-7.86
0.91
6.10
9.85
13.22
15.39
13.86
6.10
-8.82
-29.62
-53.38
-77.13
-98.91
-117.56
-131.96
-140.18
-139.88
-129.57
-110.03
-84.66
-58.28
-35.21
-17.67
-5.56
2.38
7.33
9.87
10.45
10.23
11.56
17.21
28.70
45.17
62.84
76.12
79.52
69.66
46.76
14.80
-19.72
-49.91
-70.81
-80.85
-81.66
-76.64
-68.89
-59.72
-48.45
-33.69
-14.82
7.11
29.57
49.89
66.18
78.05
86.23
91.75
94.92
94.94
90.04
78.24
58.29
30.41
-3.59
-40.46
-76.30
-107.33
-130.47
-143.80
-146.56
-139.04
-122.55
-99.37
-72.56
-45.66
-22.04
-3.98
7.79
14.18
17.11
18.66
20.27
22.44
24.94
27.71
31.26
36.83
45.78
58.45
73.29
86.55
93.29
89.28
73.06
47.22
17.92
-6.99
-20.92
-21.00
-8.90
9.94
28.45
40.13
40.50
27.58
2.13
-32.41
-70.22
-104.05
-127.20
-136.00
-131.55
-119.69
-108.74
-105.94
-114.51
-132.44
-154.02
-172.83
-184.62
-188.72
-187.28
-183.21
-178.06
-171.03
-159.80
-142.26
-118.44
-90.93
-64.09
-42.23
-28.08
-22.26
-23.43
-29.22
-36.99
-44.36
-49.47
-51.20
-49.32
-44.35
-37.19
-28.80
-19.83
-10.71
-1.93
6.08
13.02
19.05
24.61
29.92
34.45
37.19
37.62
36.92
38.37
46.33
64.01
91.58
125.48
159.69
188.15
206.97
215.29
214.58
207.27
195.43
180.50
163.72
147.10
133.79
127.39
130.42
142.58
159.50
173.32
175.13
158.35
121.88
71.16
16.21
-32.46
-67.80
-88.62
-98.96
-105.40
-113.73
-126.45
-142.05
-156.04
-162.87
-158.20
-140.61
-112.14
-77.76
-43.69
-15.31
4.60
16.23
21.89
24.10
24.19
22.10
17.35
10.56
3.95
0.62
2.87
10.95
22.84
35.29
45.61
52.84
57.81
62.26
67.49
73.74
80.32
86.22
90.98
94.99
99.34
105.39
114.29
126.49
141.48
157.55
172.05
181.85
184.29
177.98
163.18
141.56
115.29
86.10
54.53
19.85
-19.23
-63.40
-111.45
-159.70
-202.53
-234.18
-250.98
-252.80
-243.18
-227.81
-212.32
-200.38
-193.18
-189.93
-188.84
-188.02
-185.91
-181.43
-174.16
-164.40
-152.91
-140.44
-127.00
-111.77
-93.56
-71.73
-47.00
-21.37
2.69
23.70
42.05
60.13
81.18
107.59
139.37
173.49
204.83
228.14
240.32
241.90
236.87
230.63
227.39
227.91
229.16
226.07
214.61
194.36
169.48
147.02
133.48
131.29
137.07
142.85
139.99
123.53
94.84
60.69
29.34
5.83
-10.76
-26.54
-49.18
-83.61
-129.52
-181.98
-233.96
-279.27
-314.26
-337.33
-347.91
-345.55
-330.14
-302.69
-265.89
-223.85
-181.13
-141.72
-108.39
-82.49
-63.93
-51.11
-41.12
-30.32
-15.78
3.33
24.64
43.24
53.34
50.72
34.53
7.63
-24.44
-55.41
-79.93
-94.70
-98.84
-93.77
-82.55
-68.96
-56.69
-48.46
-45.49
-47.15
-51.17
-54.31
-52.99
-44.09
-25.66
2.59
39.17
80.94
124.20
165.01
199.93
226.52
243.57
251.07
249.92
241.77
228.70
213.99
201.14
193.22
192.24
198.76
211.56
227.68
242.82
251.94
252.64
245.05
232.14
218.77
209.51
206.44
208.07
209.97
206.48
196.15
181.11
166.01
155.55
152.11
155.12
162.41
172.15
174.72
166.13
146.32
118.85
88.77
60.08
33.86
9.09
-11.69
-31.23
-49.61
-65.92
-79.55
-91.48
-104.60
-122.96
-149.68
-185.62
-229.91
-277.90
-324.25
-364.44
-395.98
-418.75
-434.32
-445.10
-453.94
-464.54
-479.22
-499.29
-523.92
-549.37
-569.20
-576.16
-564.99
-534.81
-490.17
-438.00
-385.33
-336.67
-293.02
-252.83
-213.99
-175.33
-137.01
-99.96
-64.23
-28.72
8.31
48.22
91.20
136.02
180.59
223.15
263.20
301.85
340.89
381.24
421.67
458.33
485.99
500.05
498.54
482.90
457.28
426.34
393.29
358.94
321.86
279.95
231.57
175.89
112.41
40.49
-40.12
-127.81
-217.75
-301.88
-370.95
-417.88
-440.75
-443.60
-434.56
-422.49
-413.46
-409.52
-409.39
-410.50
-410.92
-409.97
-407.68
-403.81
-397.43
-387.12
-371.78
-351.32
-326.63
-299.37
-271.17
-243.03
-215.24
-187.54
-159.64
-131.77
-104.70
-79.56
-57.47
-39.03
-24.16
-12.23
-2.48
5.64
12.36
17.71
22.04
26.08
31.24
39.04
50.65
66.34
85.31
106.06
126.97
147.09
166.30
185.33
205.49
228.21
254.70
285.47
319.48
353.74
383.15
401.71
404.19
388.18
355.17
310.29
260.53
212.41
170.08
134.81
105.90
82.22
63.53
50.56
44.49
45.43
51.92
60.94
69.14
74.40
76.74
78.29
81.93
89.80
101.88
115.83
128.06
135.18
135.52
129.68
120.01
109.53
100.58
94.32
90.85
89.93
91.63
96.45
104.73
116.10
129.04
141.33
150.79
156.42
158.62
158.91
159.06
160.18
162.44
165.15
167.38
168.51
168.54
167.93
167.21
166.68
166.14
164.91
162.19
157.23
149.78
140.12
128.97
117.35
106.15
96.01
87.08
79.10
71.50
63.74
55.55
47.18
39.38
33.15
29.24
27.89
28.51
29.85
30.33
28.34
22.62
12.58
-1.41
-17.99
-34.97
-49.87
-60.83
-67.26
-70.15
-71.74
-74.44
-79.82
-88.06
-98.15
-108.79
-119.24
-130.03
-142.71
-159.45
-182.62
-214.30
-255.74
-306.25
-362.27
-417.05
-461.98
-489.26
-494.79
-479.86
-450.52
-414.64
-378.79
-345.88
-315.23
-284.34
-251.01
-214.54
-175.72
-136.02
-96.94
-60.00
-26.86
0.70
21.40
35.06
42.99
47.60
51.64
57.25
65.52
76.46
89.20
102.21
113.62
121.60
125.02
123.99
120.01
115.35
112.17
111.49
112.85
114.91
115.99
114.98
111.49
105.56
97.45
87.62
76.95
66.93
59.38
55.76
56.25
59.54
63.12
64.46
62.12
56.32
48.70
41.37
35.95
33.00
32.17
32.70
33.99
35.89
38.66
42.63
48.02
54.66
62.09
69.73
76.96
83.33
88.57
92.61
95.66
98.29
101.36
105.73
111.82
119.14
126.23
131.17
132.31
129.20
122.75
114.74
106.78
99.16
90.68
79.15
62.49
39.77
11.65
-19.87
-52.04
-81.75
-105.84
-121.39
-126.23
-119.74
-103.43
-80.80
-56.52
-35.14
-19.95
-12.46
-12.47
-18.32
-27.24
-35.62
-39.46
-35.35
-21.60
0.98
28.84
56.58
78.45
89.68
87.38
70.69
40.83
1.06
-43.06
-84.48
-116.22
-133.80
-137.25
-131.48
-124.14
-122.12
-128.07
-139.41
-149.99
-153.87
-148.56
-136.13
-121.65
-109.85
-102.48
-97.72
-92.02
-82.84
-70.46
-58.03
-49.71
-48.19
-53.34
-62.35
-71.35
-77.39
-79.71
-79.68
-79.58
-81.08
-83.89
-85.69
-82.99
-72.69
-53.67
-27.56
1.52
28.34
48.62
60.67
66.01
68.49
72.31
80.34
92.93
108.46
124.30
138.14
148.42
153.95
153.39
145.15
128.07
102.29
69.68
33.45
-2.92
-36.53
-65.29
-87.64
-102.17
-107.83
-104.72
-94.74
-81.74
-70.46
-64.68
-65.85
-72.89
-83.28
-94.64
-105.73
-116.05
-124.87
-130.10
-128.54
-117.47
-96.56
-69.03
-40.93
-18.83
-7.30
-7.31
-16.71
-31.87
-49.55
-67.41
-83.48
-95.31
-99.84
-94.19
-77.27
-50.67
-18.55
13.68
41.32
61.81
75.08
83.01
88.32
93.47
99.81
107.29
114.51
119.52
120.28
115.46
104.79
89.00
69.90
50.11
32.86
21.09
16.18
16.78
18.59
15.85
3.67
-19.53
-50.84
-83.76
-110.46
-124.38
-122.27
-104.78
-75.78
-40.91
-5.87
25.01
49.63
68.09
82.03
93.39
103.31
111.82
118.22
122.27
124.89
128.00
133.66
142.85
154.90
167.79
179.22
187.90
194.26
200.33
208.80
221.53
238.09
255.06
266.75
266.70
249.96
214.97
164.33
104.22
42.50
-13.75
-60.24
-96.24
-123.86
-146.47
-166.76
-185.58
-202.04
-214.39
-221.36
-223.08
-221.12
-217.87
-215.41
-214.90
-216.27
-218.70
-221.31
-223.58
-225.65
-228.10
-231.43
-235.42
-238.72
-238.95
-232.88
-217.76
-191.94
-155.37
-109.54
-56.78
0.07
57.88
113.09
161.67
199.71
224.62
236.28
237.50
233.15
228.37
226.11
226.39
226.54
223.08
213.99
199.31
180.97
161.26
141.56
121.93
101.70
80.47
58.79
38.27
20.86
7.55
-1.33
-6.49
-8.91
-9.38
-8.62
-7.14
-5.61
-4.75
-4.97
-5.96
-6.81
-6.28
-3.36
2.19
9.54
17.51
24.52
29.73
32.90
34.05
33.32
30.18
23.60
12.48
-3.39
-22.81
-43.10
-61.18
-74.93
-84.28
-91.27
-99.51
-112.39
-131.77
-157.06
-185.29
-212.21
-233.26
-244.71
-244.46
-232.42
-210.41
-181.61
-149.64
-117.37
-86.39
-57.23
-29.32
-2.15
25.18
53.74
84.54
118.39
154.74
191.40
224.91
252.00
270.94
282.31
288.35
291.39
292.45
290.64
283.69
269.70
248.10
219.89
187.30
152.34
116.14
78.86
40.73
3.07
-31.26
-58.76
-77.24
-87.44
-93.30
-100.86
-114.97
-137.45
-165.68
-193.93
-216.26
-228.89
-231.78
-227.93
-221.34
-214.68
-208.26
-200.22
-188.13
-170.72
-148.83
-125.27
-103.94
-87.93
-78.46
-74.73
-74.49
-75.54
-76.56
-77.40
-78.43
-79.78
-80.90
-80.80
-78.64
-74.18
-67.96
-61.06
-54.25
-47.84
-41.49
-34.56
-26.75
-18.23
-9.69
-1.94
4.37
8.81
10.86
9.80
4.89
-4.06
-16.29
-30.30
-44.67
-58.73
-72.76
-87.33
-101.99
-114.67
-121.81
-119.84
-106.79
-83.40
-52.82
-19.13
14.52
47.06
79.32
112.77
147.99
183.47
215.93
241.55
257.57
263.78
262.31
256.62
249.87
243.83
238.81
234.40
230.29
226.60
223.39
219.85
213.84
202.82
184.91
160.30
131.59
102.41
75.79
52.35
30.38
7.00
-19.77
-49.50
-79.26
-104.84
-122.62
-131.21
-131.29
-125.13
-114.89
-101.89
-86.80
-70.09
-53.22
-38.69
-29.23
-26.60
-30.53
-38.62
-47.34
-53.68
-56.36
-56.16
-55.58
-56.84
-60.93
-66.96
-72.52
-75.25
-73.83
-68.71
-61.70
-54.87
-49.47
-45.37
-41.36
-35.97
-28.53
-19.91
-11.70
-5.88
-3.15
-2.58
-2.21
0.19
5.47
12.60
19.15
22.74
22.23
18.55
14.02
11.04
10.77
12.70
14.75
14.94
12.27
7.31
1.95
-2.08
-4.00
-4.65
-5.87
-9.47
-16.02
-24.41
-32.27
-37.04
-37.22
-33.27
-26.87
-20.48
-15.65
-12.46
-9.92
-6.62
-2.07
2.98
6.99
8.85
8.84
8.66
10.63
16.11
24.58
33.75
40.23
41.53
36.96
27.93
17.31
7.69
0.43
-4.90
-9.74
-0.00
-0.00
-0.00
-0.00
-0.00
-0.00
-0.00
-0.00
-0.00
-0.00
0.00
0.01
0.01
-0.00
-0.03
-0.05
-0.05
0.00
0.13
0.36
0.66
1.01
1.37
1.72
2.06
2.40
2.79
3.24
3.80
4.42
5.06
5.66
6.20
6.68
7.15
7.68
8.31
9.14
10.09
11.04
11.88
12.56
13.14
13.76
14.65
15.96
17.91
20.32
22.90
25.38
27.58
29.57
31.68
34.32
37.81
42.54
48.15
54.10
59.83
64.97
69.58
74.14
79.34
85.71
93.76
103.00
112.62
121.73
129.77
136.75
143.30
150.75
157.77
166.64
177.95
191.79
206.97
220.57
228.25
225.36
208.53
176.87
132.76
80.05
23.07
-34.95
-92.44
-149.16
-205.23
-260.36
-313.73
-363.85
-409.79
-450.85
-486.43
-515.64
-537.11
-549.08
-549.79
-538.17
-513.98
-478.42
-433.59
-382.13
-326.66
-269.43
-212.17
-156.14
-102.36
-51.71
-5.16
36.42
72.36
102.39
126.65
145.64
160.09
170.69
178.06
182.62
184.63
184.33
181.99
177.97
172.66
166.48
159.78
152.80
145.68
138.51
131.31
124.13
117.04
110.10
103.38
96.95
90.83
85.04
79.60
74.50
69.76
65.39
61.40
57.81
54.62
51.83
49.39
47.28
45.42
43.72
42.07
40.37
38.49
36.36
33.95
31.29
28.43
25.49
22.63
19.98
17.68
15.81
14.31
13.15
12.20
11.31
10.28
8.95
7.16
4.88
2.12
-1.01
-4.34
-7.67
-10.78
-13.47
-15.56
-16.93
-17.52
-17.34
-16.43
-14.89
-12.86
-10.48
-7.87
-5.16
-2.42
0.30
2.99
5.68
8.38
11.12
13.88
16.72
19.67
22.76
26.03
29.52
33.27
37.33
41.58
45.95
50.39
54.87
59.38
63.93
68.59
73.40
78.53
83.83
89.26
94.81
100.46
106.23
112.10
118.08
124.18
130.42
136.46
142.06
146.97
150.93
153.63
154.72
153.70
149.86
144.62
138.49
131.86
124.97
117.98
111.07
104.31
97.82
91.68
86.02
80.64
75.40
70.26
65.16
60.13
55.18
50.36
45.75
41.48
37.43
33.60
29.98
26.58
23.38
20.36
17.46
14.64
11.93
9.20
6.48
3.80
1.26
-1.10
-3.26
-5.22
-7.04
-8.74
-10.36
-11.91
-13.35
-14.67
-15.92
-17.26
-18.93
-21.15
-24.07
-27.63
-31.60
-35.63
-39.39
-42.75
-45.83
-49.02
-52.78
-57.42
-63.01
-69.25
-75.66
-81.83
-87.65
-93.50
-100.08
-108.17
-118.28
-130.38
-143.92
-158.00
-171.81
-184.95
-197.52
-210.17
-223.86
-239.71
-258.74
-281.40
-307.21
-334.21
-359.07
-377.62
-386.19
-382.92
-368.48
-345.98
-319.65
-293.31
-269.05
-246.95
-225.86
-204.56
-182.64
-160.65
-139.54
-119.95
-101.79
-84.49
-67.54
-50.94
-35.50
-22.31
-12.26
-5.51
-1.31
1.56
4.38
7.93
12.42
17.55
22.81
27.72
31.89
35.16
37.46
38.77
39.25
38.97
38.15
36.94
35.38
33.48
31.01
27.64
23.05
17.11
10.28
3.62
-1.28
-2.91
-0.44
5.82
14.26
22.82
29.78
34.44
37.36
39.59
42.02
44.66
46.79
47.58
46.81
45.07
43.54
43.27
44.61
46.93
49.25
50.38
49.80
47.66
44.60
41.48
38.82
36.70
34.77
32.56
29.79
26.70
23.77
21.35
19.30
16.96
13.36
8.45
3.47
0.74
2.60
9.58
19.84
29.59
34.96
34.03
27.76
19.33
12.31
8.83
8.81
10.46
11.86
12.01
11.30
10.83
11.40
13.04
14.87
15.87
15.43
13.76
11.59
10.02
9.75
10.88
12.86
14.79
15.75
15.38
13.88
11.88
10.16
8.95
8.02
6.68
4.30
0.80
-3.15
-6.24
-7.12
-4.92
0.25
7.19
14.23
19.73
22.78
23.46
22.51
20.94
19.43
18.09
16.59
14.59
12.13
9.81
8.47
8.77
10.75
13.80
16.72
18.57
18.96
18.25
17.34
16.86
16.96
17.01
16.22
14.09
10.93
7.66
5.27
4.23
4.11
3.76
2.11
-1.28
-5.73
-9.67
-11.49
-10.17
-5.91
0.06
6.04
10.64
13.39
14.70
15.45
16.39
17.61
18.66
18.69
17.23
14.45
11.13
8.45
7.17
7.48
8.77
10.00
10.27
9.20
7.09
4.64
2.64
1.50
0.98
0.51
-0.66
-2.85
-5.84
-9.06
-11.94
-14.36
-16.72
-19.60
-23.20
-26.95
-29.54
-29.46
-25.79
-18.83
-9.97
-1.30
5.53
9.77
11.67
12.13
11.78
10.82
9.01
6.16
2.68
-0.43
-1.95
-1.18
1.66
5.36
8.27
9.15
7.60
4.29
0.49
-2.66
-4.58
-5.40
-5.78
-6.35
-7.42
-8.84
-10.26
-11.30
-11.94
-12.47
-13.26
-14.60
-16.18
-17.24
-16.75
-13.83
-8.50
-1.63
5.20
10.40
13.16
13.72
13.19
12.83
13.34
14.49
15.23
14.61
12.26
8.85
5.75
4.18
4.76
6.98
9.71
11.68
12.23
11.47
9.98
8.45
7.15
5.92
4.34
2.01
-0.96
-4.18
-7.17
-9.55
-11.47
-13.26
-15.21
-17.16
-18.34
-17.60
-14.01
-7.38
1.57
11.29
19.90
26.08
29.29
29.97
29.27
28.17
27.29
26.53
25.44
23.66
21.25
18.79
16.99
16.33
16.66
17.20
16.98
15.16
11.62
6.89
1.86
-2.51
-5.84
-8.35
-10.78
-13.92
-18.20
-23.41
-28.88
-33.81
-37.65
-40.22
-41.65
-41.96
-40.93
-38.13
-33.21
-26.44
-18.71
-11.47
-6.09
-3.36
-3.09
-4.24
-5.48
-5.63
-4.17
-1.32
2.31
5.89
8.97
11.46
13.52
15.48
17.32
18.78
19.41
18.90
17.32
15.18
13.14
11.64
10.67
9.72
7.97
4.91
0.53
-4.45
-8.80
-11.45
-11.72
-9.70
-6.08
-1.77
2.47
6.28
9.58
12.40
14.60
15.78
15.58
13.72
10.51
6.75
3.47
1.66
1.54
2.71
4.23
5.15
5.01
4.04
2.95
2.48
2.90
3.97
4.82
4.74
3.30
0.66
-2.54
-5.77
-8.66
-11.17
-13.31
-14.92
-15.51
-14.46
-11.32
-6.17
0.27
6.80
12.28
15.81
17.27
17.07
15.89
14.54
13.41
12.60
12.00
11.46
11.05
10.99
11.58
12.86
14.54
16.07
16.72
16.08
14.13
11.31
8.36
5.83
3.89
2.18
0.03
-3.09
-7.23
-11.69
-15.22
-16.49
-14.67
-9.89
-3.12
4.01
10.12
14.44
16.98
18.39
19.21
19.66
19.46
18.25
15.96
13.14
10.76
9.71
10.33
12.24
14.30
15.46
15.01
13.10
10.66
8.65
7.81
8.02
8.62
8.72
7.83
6.02
3.84
1.92
0.59
-0.35
-1.25
-2.46
-3.74
-4.40
-3.61
-0.71
4.14
10.25
16.67
22.83
28.66
34.50
40.59
46.45
50.95
52.75
50.83
45.42
37.73
29.65
23.00
18.62
16.30
14.93
13.14
9.94
5.16
-0.50
-5.81
-9.55
-11.00
-10.46
-8.84
-7.50
-7.35
-8.58
-10.74
-12.98
-14.86
-16.33
-17.73
-19.18
-20.28
-20.18
-18.03
-13.61
-7.59
-1.35
3.45
5.91
5.96
4.47
2.78
1.85
2.05
2.94
3.76
3.97
3.57
3.13
3.36
4.69
6.87
8.94
10.01
9.41
7.40
4.96
3.17
2.90
4.03
5.68
6.56
5.73
3.14
-0.46
-3.82
-5.98
-6.64
-6.19
-5.62
-5.51
-6.00
-6.59
-6.44
-5.15
-2.81
-0.23
1.69
2.40
2.10
1.52
1.60
2.86
5.16
7.56
9.04
8.72
6.62
3.57
0.68
-1.00
-1.39
-1.25
-1.79
-3.82
-7.12
-10.48
-12.31
-11.65
-8.81
-5.28
-3.29
-4.24
-8.27
-13.97
-18.99
-21.42
-20.42
-16.63
-11.61
-6.93
-3.43
-0.99
1.17
3.84
7.27
10.73
13.13
13.14
10.25
4.77
-2.34
-9.71
-16.49
-22.33
-27.37
-31.67
-34.92
-36.58
-36.30
-34.61
-32.97
-33.22
-37.05
-44.71
-55.19
-66.75
-77.86
-88.50
-100.21
-115.62
-137.04
-165.07
-197.68
-230.42
-257.52
-273.57
-275.20
-262.12
-236.50
-202.33
-163.62
-123.63
-84.99
-49.81
-20.66
-0.19
9.73
9.35
1.79
-7.68
-13.29
-11.26
-1.25
13.96
29.30
40.31
44.79
43.38
39.15
35.64
35.71
40.26
48.38
57.92
66.56
72.73
76.03
77.30
78.09
79.70
82.93
87.49
92.67
97.63
101.75
104.91
106.95
107.51
106.02
102.17
96.39
89.84
84.20
80.59
79.15
79.21
79.25
78.22
75.77
72.31
68.82
65.82
63.22
60.23
56.09
50.59
44.39
38.79