1574667745.00
64.000000
-0.00
-0.00
-0.00
-0.00
-0.00
-0.00
-0.00
-0.00
-0.00
-0.00
0.00
0.01
0.01
-0.00
-0.03
-0.05
-0.05
0.00
0.13
0.36
0.66
1.01
1.37
1.72
2.06
2.40
2.79
3.24
3.80
4.42
5.06
5.66
6.20
6.68
7.15
7.68
8.31
9.14
10.09
11.04
11.88
12.56
13.14
13.76
14.65
15.96
17.91
20.32
22.90
25.38
27.58
29.57
31.68
34.32
37.81
42.54
48.15
54.10
59.83
64.97
69.58
74.14
79.34
85.71
93.76
103.00
112.62
121.73
129.77
136.75
143.30
150.75
157.77
166.64
177.95
191.79
206.97
220.57
228.25
225.36
208.53
176.87
132.76
80.05
23.07
-34.94
-92.44
-149.16
-205.23
-260.37
-313.74
-363.87
-409.83
-450.91
-486.50
-515.74
-537.23
-549.22
-549.96
-538.37
-514.21
-478.67
-433.88
-382.45
-327.02
-269.84
-212.63
-156.66
-102.95
-52.37
-5.90
35.58
71.43
101.35
125.50
144.38
158.69
169.15
176.37
180.75
182.57
182.07
179.51
175.23
169.65
163.18
156.15
148.81
141.30
133.69
126.02
118.33
110.69
103.16
95.80
88.68
81.83
75.25
68.95
62.95
57.25
51.86
46.78
42.03
37.59
33.45
29.61
26.07
22.81
19.83
17.11
14.67
12.48
10.54
8.83
7.35
6.07
4.97
4.05
3.27
2.62
2.09
1.65
1.30
1.01
0.79
0.61
0.48
0.37
0.29
0.24
0.20
0.18
0.17
0.17
0.19
0.21
0.24
0.27
0.31
0.35
0.39
0.44
0.49
0.54
0.59
0.64
0.70
0.76
0.83
0.90
0.98
1.06
1.15
1.26
1.37
1.50
1.65
1.81
1.98
2.18
2.40
2.64
2.91
3.21
3.54
3.90
4.30
4.73
5.20
5.72
6.27
6.86
7.51
8.19
8.92
9.70
10.52
11.40
12.32
13.28
14.29
15.37
16.50
17.71
18.96
20.27
21.57
22.85
24.00
24.94
25.55
25.70
25.27
24.16
22.31
19.72
16.42
12.47
8.07
3.39
-1.35
-5.92
-10.13
-13.79
-16.78
-19.04
-20.54
-21.32
-21.47
-21.10
-20.32
-19.22
-17.90
-16.38
-14.69
-12.81
-10.69
-8.34
-5.77
-2.99
-0.04
3.08
6.30
9.62
12.99
16.44
19.78
22.91
25.74
28.20
30.31
32.08
33.65
35.15
36.80
38.49
40.17
41.86
43.55
45.30
47.23
49.53
52.44
56.29
60.78
65.75
70.99
76.34
81.70
87.07
92.61
98.55
105.13
111.80
118.03
123.19
126.66
127.90
126.44
121.75
112.79
102.59
91.86
80.62
68.58
55.26
40.37
23.96
6.36
-11.86
-30.13
-48.75
-68.04
-88.49
-110.57
-134.81
-161.56
-190.73
-221.40
-251.53
-278.64
-299.69
-312.13
-314.78
-308.12
-294.09
-275.26
-254.00
-231.94
-210.24
-189.45
-169.93
-151.95
-135.62
-120.55
-105.95
-90.58
-73.38
-53.99
-32.89
-11.63
7.75
23.25
33.73
39.23
40.83
40.20
38.82
37.66
37.11
37.05
37.11
36.85
35.91
34.31
32.43
31.10
31.00
32.35
34.58
36.48
36.80
34.75
30.38
24.37
17.62
10.93
4.82
-0.24
-3.77
-5.38
-4.91
-2.82
0.06
2.85
5.00
6.47
7.48
8.09
7.98
6.58
3.36
-1.75
-8.23
-15.13
-21.45
-26.36
-29.59
-31.14
-31.44
-31.09
-30.88
-31.71
-34.49
-39.86
-47.97
-58.33
-69.90
-81.39
-91.67
-99.96
-105.99
-109.82
-111.62
-111.69
-110.09
-106.68
-100.90
-91.79
-78.38
-60.08
-37.19
-11.07
16.21
42.36
65.54
84.57
99.07
109.12
114.93
116.96
115.81
112.38
107.71
102.76
98.05
93.60
88.96
83.59
77.14
69.64
61.55
53.65
46.82
41.79
39.03
38.54
40.03
42.86
46.27
49.53
51.98
53.16
52.81
50.95
47.87
44.03
40.00
36.27
33.17
30.83
29.09
27.74
26.44
24.87
22.76
19.87
16.04
11.26
5.59
-0.75
-7.44
-14.00
-19.82
-24.09
-25.97
-24.85
-20.56
-13.66
-5.20
3.45
11.08
16.98
20.90
22.93
23.32
22.28
20.10
17.18
14.11
11.51
9.83
9.15
9.10
9.17
8.92
8.20
7.19
6.07
4.82
3.06
0.25
-3.99
-9.42
-15.07
-19.52
-21.29
-19.51
-14.30
-6.66
1.78
9.47
15.37
19.12
20.98
21.52
21.30
20.66
19.79
18.83
17.86
17.04
16.42
15.95
15.47
14.78
13.73
12.34
10.66
8.70
6.34
3.31
-0.64
-5.50
-10.74
-15.32
-17.90
-17.36
-13.25
-6.09
2.71
11.38
18.30
22.56
24.06
23.30
21.07
18.08
14.86
11.81
9.32
7.77
7.37
8.07
9.39
10.63
11.10
10.26
8.04
4.63
0.44
-4.15
-8.86
-13.44
-17.60
-20.86
-22.53
-21.90
-18.54
-12.58
-4.82
3.48
10.92
16.39
19.33
19.81
18.40
15.87
12.98
10.29
8.08
6.42
5.20
4.32
3.67
3.17
2.75
2.25
1.48
0.16
-1.86
-4.63
-8.00
-11.63
-15.06
-17.69
-18.89
-18.08
-14.93
-9.48
-2.32
5.58
13.01
18.91
22.54
23.69
22.62
19.96
16.52
13.13
10.44
8.79
8.14
8.15
8.39
8.53
8.41
8.02
7.41
6.54
5.24
3.25
0.40
-3.31
-7.61
-11.92
-15.47
-17.41
-17.05
-14.09
-8.73
-1.71
5.83
12.68
17.82
20.67
21.07
19.31
15.98
11.87
7.87
4.72
2.92
2.47
2.97
3.80
4.34
4.24
3.47
2.24
0.78
-0.80
-2.62
-4.97
-8.07
-11.90
-16.06
-19.67
-21.69
-21.21
-17.84
-11.96
-4.56
3.01
9.52
14.19
16.76
17.45
16.62
14.67
11.98
9.06
6.44
4.70
4.19
4.86
6.21
7.55
8.24
7.98
6.87
5.27
3.50
1.63
-0.51
-3.28
-6.84
-10.95
-14.91
-17.65
-18.18
-15.93
-11.03
-4.28
3.10
9.88
15.17
18.52
19.91
19.57
17.82
15.10
11.89
8.81
6.43
5.18
5.12
5.90
6.91
7.46
7.11
5.74
3.65
1.28
-0.96
-2.88
-4.55
-6.14
-7.71
-9.13
-10.05
-9.98
-8.58
-5.73
-1.69
3.07
7.88
12.13
15.30
17.12
17.50
16.57
14.59
11.95
9.11
6.56
4.71
3.74
3.54
3.73
3.75
3.14
1.73
-0.31
-2.61
-4.81
-6.80
-8.81
-11.25
-14.45
-18.22
-21.80
-24.06
-23.82
-20.47
-14.30
-6.47
1.40
7.82
11.86
13.42
12.97
11.28
9.03
6.65
4.36
2.22
0.29
-1.47
-3.22
-5.16
-7.46
-9.99
-12.30
-13.70
-13.53
-11.64
-8.58
-5.56
-4.02
-5.02
-8.74
-14.21
-19.62
-22.97
-22.81
-18.82
-11.89
-3.75
3.73
9.17
12.02
12.52
11.28
9.05
6.44
3.81
1.49
-0.29
-1.32
-1.54
-1.06
-0.18
0.66
1.06
0.76
-0.27
-1.87
-3.80
-5.90
-8.23
-10.94
-14.09
-17.42
-20.11
-21.06
-19.30
-14.43
-7.05
1.39
9.10
14.59
17.19
17.18
15.46
13.05
10.72
8.77
7.15
5.73
4.45
3.42
2.80
2.65
2.86
3.08
2.90
1.95
0.13
-2.43
-5.41
-8.47
-11.43
-14.29
-17.10
-19.72
-21.67
-22.13
-20.28
-15.70
-8.79
-0.76
6.79
12.40
15.32
15.63
14.08
11.62
8.98
6.62
4.69
3.33
2.71
3.02
4.30
6.24
8.26
9.59
9.63
8.14
5.36
1.88
-1.63
-4.62
-6.97
-8.89
-10.79
-12.96
-15.29
-17.18
-17.81
-16.41
-12.82
-7.48
-1.44
4.15
8.41
10.99
12.04
11.92
11.00
9.55
7.74
5.87
4.31
3.45
3.51
4.38
5.64
6.67
6.91
6.10
4.27
1.79
-0.91
-3.41
-5.55
-7.44
-9.40
-11.82
-14.82
-18.11
-20.92
-22.21
-21.11
-17.31
-11.29
-4.14
2.83
8.54
12.43
14.48
15.00
14.37
12.87
10.78
8.41
6.23
4.67
4.00
4.14
4.66
5.02
4.78
3.86
2.51
1.18
0.24
-0.23
-0.54
-1.20
-2.75
-5.48
-9.26
-13.61
-17.72
-20.71
-21.84
-20.65
-17.14
-11.70
-5.19
1.41
7.05
11.00
12.89
12.73
10.94
8.15
5.11
2.56
1.03
0.77
1.60
3.00
4.31
4.97
4.72
3.58
1.89
0.01
-1.78
-3.30
-4.55
-5.62
-6.73
-8.20
-10.30
-13.16
-16.52
-19.66
-21.52
-21.02
-17.50
-11.05
-2.64
6.17
13.72
18.69
20.58
19.69
16.90
13.30
9.80
6.91
4.73
3.15
1.97
1.11
0.56
0.30
0.25
0.17
-0.22
-1.12
-2.58
-4.47
-6.59
-8.81
-11.13
-13.67
-16.44
-19.15
-21.07
-21.27
-18.91
-13.72
-6.28
2.16
10.00
15.85
19.00
19.51
18.04
15.56
12.87
10.46
8.50
6.95
5.75
4.96
4.66
4.87
5.48
6.18
6.53
6.20
4.97
2.88
0.06
-3.33
-7.20
-11.51
-16.13
-20.62
-24.22
-25.95
-24.95
-20.82
-13.95
-5.46
3.07
10.01
14.33
15.72
14.64
12.01
8.86
5.96
3.74
2.29
1.50
1.22
1.29
1.54
1.88
2.19
2.35
2.27
1.81
0.85
-0.68
-2.80
-5.47
-8.63
-12.15
-15.74
-18.88
-20.76
-20.51
-17.54
-11.89
-4.43
3.39
9.94
14.07
15.40
14.47
12.29
9.87
7.88
6.42
5.24
4.01
2.54
0.97
-0.46
-1.47
-1.98
-2.20
-2.49
-3.27
-4.69
-6.71
-9.11
-11.69
-14.40
-17.31
-20.29
-22.84
-24.04
-22.83
-18.53
-11.34
-2.40
6.47
13.41
17.28
17.85
15.85
12.45
8.78
5.67
3.45
2.16
1.68
1.84
2.52
3.51
4.60
5.49
5.78
5.17
3.43
0.62
-3.03
-7.13
-11.31
-15.34
-19.13
-22.46
-24.92
-25.79
-24.36
-20.29
-13.96
-6.45
0.78
6.33
9.52
10.36
9.50
7.79
5.93
4.28
2.96
1.98
1.46
1.55
2.39
3.85
5.57
6.99
7.60
7.09
5.46
3.01
0.14
-2.84
-5.78
-8.74
-11.76
-14.65
-16.88
-17.57
-15.94
-11.56
-4.76
3.39
11.41
17.80
21.69
22.91
21.96
19.68
16.81
13.88
11.13
8.65
6.56
4.97
3.99
3.60
3.71
4.04
4.18
3.77
2.54
0.42
-2.45
-5.85
-9.53
-13.37
-17.20
-20.72
-23.27
-23.91
-21.71
-16.26
-8.02
1.70
11.04
18.25
22.34
23.24
21.73
18.98
16.01
13.45
11.43
9.81
8.52
7.56
7.09
7.15
7.61
8.06
7.97
6.95
4.84
1.87
-1.57
-5.19
-8.83
-12.56
-16.43
-20.13
-22.92
-23.73
-21.63
-16.24
-8.12
1.38
10.46
17.50
21.59
22.74
21.67
19.49
17.11
15.09
13.52
12.24
11.09
10.03
9.12
8.38
7.66
6.70
5.14
2.84
-0.17
-3.62
-7.16
-10.58
-13.87
-17.24
-20.88
-24.68
-28.09
-30.10
-29.58
-25.75
-18.60
-9.06
1.24
10.41
17.07
20.60
21.30
20.04
17.79
15.25
12.73
10.29
8.02
6.13
4.92
4.55
4.87
5.44
5.59
4.86
3.08
0.52
-2.34
-5.08
-7.46
-9.69
-12.11
-15.07
-18.49
-21.79
-24.02
-24.12
-21.49
-16.22
-9.08
-1.37
5.69
11.22
14.86
16.75
17.25
16.71
15.45
13.78
12.06
10.70
10.02
10.07
10.61
11.14
11.09
10.10
8.10
5.47
2.82
0.74
-0.45
-0.96
-1.51
-3.05
-6.40
-11.77
-18.65
-25.81
-31.63
-34.69
-34.05
-29.68
-22.27
-13.06
-3.43
5.43
12.67
17.82
20.71
21.42
20.30
17.98
15.29
13.13
12.17
12.64
14.14
15.88
16.99
16.91
15.60
13.45
11.04
8.74
6.61
4.37
1.66
-1.72
-5.81
-10.37
-15.06
-19.48
-23.06
-25.27
-25.49
-23.31
-18.71
-12.16
-4.66
2.49
8.08
11.32
12.03
10.68
8.19
5.50
3.39
2.22
1.86
2.00
2.26
2.42
2.47
2.49
2.50
2.35
1.75
0.48
-1.50
-4.00
-6.72
-9.46
-12.22
-15.13
-18.19
-21.09
-23.06
-23.14
-20.53
-15.02
-7.21
1.66
10.05
16.66
20.74
22.27
21.78
20.02
17.77
15.58
13.66
12.04
10.61
9.27
8.02
6.92
6.03
5.25
4.36
3.03
1.04
-1.56
-4.53
-7.56
-10.50
-13.54
-16.97
-20.96
-25.07
-28.22
-28.99
-26.20
-19.62
-10.16
0.32
9.78
16.69
20.49
21.53
20.64
18.71
16.37
13.95
11.70
9.83
8.63
8.29
8.70
9.50
10.09
9.84
8.39
5.78
2.44
-1.01
-4.01
-6.40
-8.54
-11.09
-14.73
-19.54
-24.86
-29.34
-31.41
-30.00
-24.95
-17.12
-8.04
0.73
8.05
13.38
16.63
17.95
17.53
15.48
12.22
8.36
4.78
2.36
1.52
2.16
3.56
4.74
4.89
3.73
1.53
-1.09
-3.46
-5.24
-6.53
-7.76
-9.53
-12.24
-15.89
-20.02
-23.71
-25.89
-25.60
-22.37
-16.33
-8.23
0.82
9.59
17.06
22.51
25.55
26.04
24.23
20.67
16.25
12.09
9.18
7.98
8.36
9.53
10.50
10.49
9.26
7.04
4.48
2.12
0.21
-1.30
-2.81
-4.67
-7.14
-10.26
-13.86
-17.66
-21.21
-23.91
-25.02
-23.79
-19.75
-12.97
-4.19
5.33
14.15
20.99
25.13
26.43
25.32
22.58
19.12
15.75
13.10
11.43
10.73
10.72
11.02
11.24
11.08
10.34
8.89
6.76
4.00
0.88
-2.29
-5.22
-7.84
-10.35
-13.22
-16.81
-21.07
-25.29
-28.25
-28.59
-25.49
-19.03
-10.21
-0.70
7.91
14.47
18.59
20.45
20.54
19.34
17.21
14.46
11.51
8.86
7.03
6.29
6.58
7.46
8.28
8.47
7.69
5.98
3.68
1.23
-1.00
-2.95
-4.92
-7.40
-10.74
-14.84
-18.96
-21.85
-22.25
-19.35
-13.21
-4.92
3.98
11.88
17.76
21.33
22.79
22.52
20.80
17.79
13.75
9.27
5.20
2.35
1.15
1.39
2.26
2.82
2.30
0.56
-2.00
-4.74
-7.11
-8.96
-10.57
-12.46
-15.07
-18.54
-22.60
-26.52
-29.45
-30.48
-28.96
-24.79
-18.35
-10.51
-2.33
5.18
11.25
15.44
17.55
17.61
15.89
12.93
9.54
6.57
4.75
4.38
5.18
6.49
7.51
7.68
6.84
5.21
3.23
1.16
-0.92
-3.21
-5.91
-9.10
-12.65
-16.23
-19.57
-22.42
-24.57
-25.81
-25.69
-23.74
-19.56
-13.19
-5.22
3.23
10.83
16.44
19.44
19.85
18.21
15.34
12.13
9.32
7.30
6.15
5.63
5.34
4.96
4.29
3.41
2.38
1.21
-0.24
-2.15
-4.46
-6.95
-9.21
-11.10
-12.75
-14.59
-17.08
-20.12
-23.00
-24.50
-23.44
-19.27
-12.37
-3.92
4.50
11.57
16.52
19.23
19.99
19.28
17.54
15.11
12.37
9.69
7.49
6.10
5.63
5.94
6.59
6.96
6.49
4.92
2.42
-0.48
-3.14
-5.19
-6.73
-8.36
-10.91
-14.79
-19.74
-24.69
-28.11
-28.65
-25.68
-19.53
-11.33
-2.48
5.80
12.72
17.90
21.16
22.38
21.46
18.58
14.28
9.53
5.47
2.97
2.34
3.16
4.55
5.57
5.58
4.46
2.50
0.20
-2.05
-4.09
-6.01
-8.15
-10.81
-14.16
-18.07
-22.03
-25.21
-26.66
-25.58
-21.67
-15.24
-7.17
1.33
9.06
15.09
18.97
20.61
20.26
18.35
15.42
12.08
8.93
6.46
4.97
4.47
4.71
5.28
5.73
5.70
5.02
3.73
2.00
0.07
-1.87
-3.79
-5.85
-8.35
-11.52
-15.32
-19.31
-22.66
-24.38
-23.64
-20.14
-14.21
-6.72
1.15
8.28
13.81
17.25
18.47
17.64
15.19
11.73
8.02
4.81
2.69
1.92
2.42
3.74
5.26
6.38
6.70
6.12
4.83
3.12
1.32
-0.40
-2.09
-3.96
-6.33
-9.44
-13.29
-17.51
-21.34
-23.81
-23.99
-21.33
-15.92
-8.47
-0.15
7.81
14.41
19.05
21.58
22.14
21.08
18.83
15.94
12.95
10.38
8.54
7.50
6.99
6.59
5.82
4.37
2.23
-0.34
-2.94
-5.22
-6.98
-8.32
-9.52
-10.88
-12.71
-15.14
-18.10
-21.33
-24.30
-26.33
-26.64
-24.64
-20.13
-13.45
-5.47
2.67
9.81
15.09
18.10
18.83
17.64
15.09
11.88
8.71
6.18
4.69
4.34
4.92
5.99
6.99
7.43
7.05
5.83
4.01
1.91
-0.16
-2.06
-3.88
-5.91
-8.45
-11.65
-15.32
-18.86
-21.42
-22.12
-20.35
-16.00
-9.56
-1.97
5.67
12.31
17.23
20.03
20.64
19.26
16.32
12.44
8.42
5.00
2.80
2.01
2.42
3.49
4.58
5.18
5.04
4.18
2.77
1.04
-0.84
-2.80
-4.89
-7.26
-10.09
-13.50
-17.35
-21.12
-23.95
-24.85
-23.06
-18.38
-11.31
-2.94
5.41
12.54
17.64
20.39
20.85
19.40
16.58
13.06
9.56
6.69
4.87
4.16
4.34
4.94
5.43
5.43
4.73
3.30
1.30
-1.08
-3.64
-6.29
-9.02
-11.92
-15.14
-18.73
-22.46
-25.80
-27.96
-28.07
-25.55
-20.32
-12.96
-4.51
3.78
10.85
15.99
18.96
19.86
19.03
16.95
14.18
11.30
8.82
7.15
6.42
6.45
6.89
7.28
7.26
6.64
5.43
3.78
1.86
-0.20
-2.36
-4.67
-7.24
-10.20
-13.62
-17.36
-21.00
-23.80
-24.87
-23.44
-19.15
-12.34
-3.97
4.66
12.30
18.03
21.40
22.43
21.41
18.83
15.32
11.62
8.44
6.30
5.44
5.72
6.69
7.77
8.45
8.42
7.59
6.11
4.21
2.12
-0.03
-2.20
-4.51
-7.17
-10.41
-14.31
-18.64
-22.82
-25.90
-26.90
-25.10
-20.37
-13.28
-4.90
3.49
10.83
16.43
20.04
21.65
21.48
19.82
17.16
14.08
11.25
9.18
8.09
7.84
8.00
8.07
7.61
6.46
4.69
2.56
0.40
-1.55
-3.19
-4.64
-6.17
-8.15
-10.90
-14.48
-18.62
-22.68
-25.71
-26.73
-25.06
-20.56
-13.74
-5.66
2.42
9.33
14.37
17.27
18.15
17.32
15.14
12.03
8.49
5.18
2.79
1.82
2.38
4.07
6.10
7.58
7.85
6.70
4.39
1.45
-1.51
-4.16
-6.39
-8.40
-10.51
-13.04
-16.18
-19.84
-23.62
-26.77
-28.36
-27.51
-23.79
-17.41
-9.18
-0.34
7.87
14.47
18.95
21.13
21.16
19.31
16.03
11.98
7.96
4.83
3.20
3.23
4.55
6.38
7.85
8.31
7.56
5.79
3.49
1.12
-1.05
-2.96
-4.75
-6.62
-8.74
-11.21
-14.06
-17.08
-19.79
-21.47
-21.31
-18.78
-13.86
-7.15
0.31
7.33
13.02
16.89
18.84
18.94
17.38
14.43
10.54
6.40
2.87
0.68
0.15
1.09
2.82
4.43
5.15
4.62
2.95
0.64
-1.71
-3.66
-5.06
-6.11
-7.24
-8.92
-11.50
-15.02
-19.10
-22.92
-25.38
-25.41
-22.39
-16.35
-8.16
0.85
9.24
15.91
20.30
22.35
22.28
20.42
17.18
13.07
8.77
5.09
2.71
2.00
2.77
4.40
6.01
6.82
6.43
4.93
2.77
0.54
-1.32
-2.72
-3.94
-5.49
-7.89
-11.45
-16.08
-21.23
-25.96
-29.08
-29.50
-26.59
-20.44
-11.92
-2.46
6.36
13.28
17.64
19.41
19.03
17.11
14.28
11.11
8.13
5.89
4.78
5.00
6.38
8.41
10.33
11.43
11.27
9.81
7.40
4.60
1.97
-0.22
-2.01
-3.77
-6.00
-9.12
-13.33
-18.41
-23.71
-28.21
-30.74
-30.30
-26.45
-19.51
-10.54
-1.03
7.50
14.00
18.05
19.80
19.75
18.41
16.24
13.65
11.05
8.91
7.68
7.62
8.63
10.21
11.63
12.18
11.39
9.29
6.25
2.92
-0.13
-2.57
-4.37
-5.78
-7.18
-8.94
-11.39
-14.78
-19.12
-24.14
-29.06
-32.73
-33.87
-31.54
-25.55
-16.60
-6.16
4.02
12.49
18.41
21.64
22.59
21.86
20.09
17.76
15.30
13.10
11.52
10.84
11.16
12.28
13.75
14.97
15.33
14.51
12.50
9.64
6.46
3.45
0.89
-1.19
-2.97
-4.72
-6.78
-9.39
-12.72
-16.75
-21.16
-25.28
-28.17
-28.88
-26.69
-21.53
-13.94
-5.02
3.93
11.77
17.71
21.42
22.89
22.35
20.16
16.82
13.00
9.47
6.97
5.95
6.41
7.88
9.59
10.73
10.78
9.61
7.50
4.90
2.29
-0.04
-1.93
-3.42
-4.69
-6.03
-7.87
-10.63
-14.46
-19.05
-23.54
-26.66
-27.22
-24.52
-18.73
-10.76
-1.98
6.30
13.19
18.29
21.52
22.91
22.46
20.22
16.50
12.05
7.94
5.32
5.00
7.19
11.35
16.43
21.17
24.40
25.29
23.51
19.19
12.93
5.64
-1.66
-8.12
-13.29
-17.27
-20.57
-23.83
-27.43
-31.13
-34.10
-35.16
-33.33
-28.22
-20.35
-10.97
-1.58
6.49
12.44
16.06
17.49
17.09
15.18
12.17
8.63
5.34
3.10
2.49
3.69
6.25
9.34
11.94
13.24
12.82
10.80
7.69
4.18
0.90
-1.82
-4.01
-6.03
-8.44
-11.77
-16.31
-21.89
-27.83
-33.05
-36.26
-36.36
-32.76
-25.64
-15.94
-5.11
5.26
13.87
19.94
23.24
24.03
22.84
20.27
16.99
13.66
10.88
9.18
8.88
9.92
11.83
13.82
15.05
14.84
13.02
9.93
6.26
2.77
-0.07
-2.19
-3.96
-5.94
-8.64
-12.37
-17.10
-22.43
-27.60
-31.61
-33.36
-31.97
-27.08
-19.04
-8.89
1.90
11.82
19.71
24.95
27.43
27.46
25.57
22.45
18.89
15.71
13.63
13.14
14.34
16.87
19.99
22.74
24.18
23.68
21.10
16.84
11.67
6.53
2.18
-1.02
-3.16
-4.75
-6.46
-8.89
-12.34
-16.64
-21.21
-25.07
-27.19
-26.78
-23.59
-18.08
-11.28
-4.50
1.11
4.82
6.46
6.30
4.80
2.48
-0.20
-2.81
-4.89
-5.99
-5.76
-4.10
-1.31
1.99
5.02
7.10
7.90
7.46
6.15
4.41
2.60
0.81
-1.08
-3.30
-6.08
-9.55
-13.70
-18.26
-22.64
-25.98
-27.25
-25.60
-20.67
-12.82
-3.10
7.00
16.04
22.92
27.11
28.61
27.78
25.18
21.52
17.54
14.05
11.75
11.04
11.84
13.56
15.26
15.98
15.11
12.56
8.74
4.28
-0.29
-4.72
-9.10
-13.70
-18.85
-24.72
-31.20
-37.83
-43.75
-47.80
-48.82
-45.99
-39.20
-29.17
-17.36
-5.50
4.82
12.55
17.29
19.18
18.72
16.61
13.65
10.63
8.28
7.10
7.21
8.39
10.06
11.54
12.28
12.00
10.73
8.74
6.31
3.61
0.60
-2.97
-7.40
-12.90
-19.34
-26.06
-31.95
-35.59
-35.68
-31.57
-23.52
-12.75
-1.06
9.68
18.07
23.41
25.68
25.33
23.06
19.63
15.86
12.48
10.06
8.88
8.87
9.63
10.63
11.31
11.33
10.48
8.77
6.29
3.19
-0.39
-4.34
-8.62
-13.26
-18.23
-23.17
-27.34
-29.59
-28.73
-23.97
-15.46
-4.36
7.34
17.48
24.44
27.46
26.84
23.58
18.92
14.04
9.76
6.55
4.57
3.78
4.01
4.95
6.26
7.51
8.26
8.11
6.74
4.13
0.55
-3.50
-7.38
-10.71
-13.41
-15.66
-17.54
-18.72
-18.43
-15.71
-10.02
-1.71
7.96
17.05
23.80
27.08
26.83
23.83
19.36
14.64
10.58
7.70
6.20
6.11
7.34
9.61
12.45
15.11
16.67
16.43
14.04
9.85
4.67
-0.55
-5.26
-9.55
-14.13
-19.73
-26.48
-33.40
-38.58
-39.77
-35.42
-25.41
-11.29
4.18
18.04
28.01
33.15
33.80
31.16
26.69
21.60
16.75
12.68
9.74
8.12
7.76
8.33
9.24
9.78
9.45
8.07
5.87
3.31
0.86
-1.24
-3.16
-5.30
-8.12
-11.74
-15.74
-19.13
-20.66
-19.29
-14.71
-7.50
0.87
8.66
14.36
17.19
17.17
14.90
11.18
6.70
1.99
-2.56
-6.55
-9.56
-11.32
-11.73
-10.96
-9.42
-7.57
-5.82
-4.43
-3.51
-3.14
-3.44
-4.66
-7.12
-11.02
-16.25
-22.10
-27.30
-30.23
-29.51
-24.51
-15.79
-4.95
5.85
14.66
20.28
22.54
22.04
19.72
16.48
12.94
9.51
6.51
4.26
3.00
2.79
3.34
4.14
4.57
4.22
2.96
0.98
-1.43
-4.07
-7.01
-10.59
-15.13
-20.63
-26.43
-31.27
-33.51
-31.78
-25.57
-15.54
-3.44
8.51
18.26
24.60
27.30
27.01
24.70
21.35
17.64
14.02
10.81
8.27
6.62
5.88
5.89
6.22
6.36
5.87
4.53
2.35
-0.48
-3.79
-7.54
-11.90
-17.07
-22.98
-28.99
-33.88
-36.13
-34.50
-28.55
-18.96
-7.36
4.24
14.03
20.97
24.80
25.92
24.97
22.58
19.29
15.60
12.08
9.23
7.42
6.68
6.68
6.83
6.57
5.56
3.76
1.44
-1.13
-3.77
-6.60
-9.93
-14.13
-19.21
-24.68
-29.49
-32.19
-31.56
-26.96
-18.73
-8.15
3.00
13.00
20.65
25.43
27.44
27.10
24.96
21.68
17.97
14.66
12.45
11.70
12.29
13.60
14.74
14.94
13.77
11.30
7.96
4.33
0.84
-2.37
-5.48
-8.93
-13.14
-18.22
-23.82
-28.97
-32.35
-32.64
-29.10
-21.85
-11.88
-0.83
9.65
18.26
24.27
27.58
28.39
27.11
24.30
20.63
16.92
13.99
12.45
12.46
13.62
15.13
16.02
15.60
13.69
10.65
7.19
3.95
1.27
-0.94
-3.08
-5.60
-8.85
-12.95
-17.81
-22.97
-27.64
-30.74
-31.04
-27.64
-20.36
-9.94
2.06
13.73
23.38
30.02
33.44
34.09
32.70
30.02
26.74
23.41
20.52
18.46
17.46
17.48
18.25
19.21
19.77
19.43
17.94
15.44
12.28
8.92
5.67
2.61
-0.49
-4.08
-8.62
-14.46
-21.61
-29.68
-37.79
-44.70
-49.12
-49.93
-46.69
-39.76
-30.18
-19.43
-8.93
0.22
7.35
12.16
14.51
14.49
12.36
8.75
4.67
1.24
-0.59
-0.41
1.52
4.38
7.16
9.05
9.66
9.11
7.82
6.25
4.71
3.22
1.60
-0.46
-3.20
-6.72
-11.00
-15.76
-20.48
-24.37
-26.51
-26.04
-22.50
-16.03
-7.45
1.97
10.76
17.76
22.28
24.11
23.53
21.04
17.29
12.96
8.76
5.26
2.88
1.73
1.62
2.16
2.90
3.55
4.02
4.30
4.40
4.15
3.28
1.44
-1.65
-6.15
-12.05
-19.02
-26.38
-33.03
-37.53
-38.50
-35.04
-27.19
-16.04
-3.38
8.84
19.07
26.57
31.24
33.45
33.66
32.25
29.61
26.17
22.53
19.28
17.00
16.01
16.28
17.51
19.11
20.42
20.82
19.89
17.51
13.82
9.16
3.77
-2.20
-8.78
-15.97
-23.48
-30.62
-36.30
-39.35
-38.97
-35.01
-28.17
-19.75
-11.25
-3.97
1.35
4.49
5.65
5.25
3.76
1.72
-0.36
-1.93
-2.54
-2.01
-0.49
1.48
3.19
3.95
3.34
1.34
-1.78
-5.52
-9.45
-13.23
-16.78
-20.21
-23.73
-27.55
-31.62
-35.47
-38.29
-38.96
-36.57
-30.65
-21.52
-10.29
1.42
11.92
19.83
24.45
25.75
24.33
21.14
17.24
13.62
10.97
9.64
9.48
10.07
10.79
11.06
10.55
9.22
7.29
5.05
2.75
0.49
-1.77
-4.24
-7.18
-10.87
-15.45
-20.75
-26.08
-30.30
-31.95
-29.81
-23.41
-13.30
-1.06
11.19
21.44
28.31
31.35
30.90
27.83
23.17
17.89
12.83
8.51
5.27
3.15
1.96
1.35
0.92
0.31
-0.69
-2.20
-4.18
-6.57
-9.31
-12.43
-16.14
-20.62
-25.99
-31.90
-37.48
-41.33
-41.98
-38.48
-30.90
-20.46
-9.19
0.82
8.05
12.06
13.29
12.72
11.32
9.70
8.17
6.83
5.80
5.22
5.16
5.50
5.90
5.95
5.32
3.96
2.13
0.25
-1.32
-2.49
-3.53
-5.07
-7.77
-11.95
-17.20
-22.32
-25.58
-25.38
-21.00
-12.92
-2.79
7.25
15.35
20.44
22.41
21.77
19.29
15.64
11.44
7.26
3.71
1.32
0.35
0.72
1.91
3.23
4.02
3.85
2.66
0.60
-2.04
-5.11
-8.55
-12.44
-16.78
-21.23
-25.06
-27.18
-26.54
-22.52
-15.33
-6.00
3.83
12.44
18.60
21.74
22.08
20.29
17.20
13.53
9.79
6.31
3.40
1.34
0.32
0.38
1.18
2.12
2.48
1.75
-0.29
-3.45
-7.38
-11.77
-16.40
-21.01
-25.13
-27.92
-28.33
-25.57
-19.47
-10.76
-0.88
8.47
15.90
20.67
22.78
22.70
21.07
18.48
15.39
12.12
8.99
6.30
4.32
3.20
2.88
3.08
3.32
3.05
1.77
-0.82
-4.78
-9.96
-15.95
-22.18
-27.75
-31.61
-32.68
-30.23
-24.19
-15.30
-4.93
5.21
13.55
19.03
21.21
20.32
17.08
12.51
7.71
3.66
0.92
-0.41
-0.60
-0.19
0.40
0.84
0.98
0.61
-0.57
-2.97
-6.94
-12.47
-19.03
-25.60
-30.83
-33.44
-32.57
-28.03
-20.48
-11.11
-1.44
7.17
13.80
18.03
19.90
19.69
17.87
14.98
11.62
8.44
5.94
4.45
3.96
4.21
4.80
5.30
5.39
4.87
3.62
1.56
-1.42
-5.43
-10.51
-16.36
-22.27
-27.03
-29.21
-27.63
-21.87
-12.64
-1.61
9.09
17.62
23.01
25.28
25.16
23.58
21.30
18.72
16.05
13.50
11.34
9.85
9.15
9.07
9.17
8.85
7.64
5.37
2.22
-1.46
-5.34
-9.29
-13.31
-17.35
-21.01
-23.51
-23.83
-21.13
-15.23
-6.74
2.95
12.24
19.70
24.52
26.52
26.07
23.76
20.28
16.29
12.44
9.24
7.06
6.00
5.87
6.22
6.54
6.32
5.25
3.25
0.41
-3.08
-7.07
-11.51
-16.34
-21.27
-25.71
-28.69
-29.16
-26.35
-20.22
-11.55
-1.78
7.46
14.82
19.55
21.57
21.28
19.32
16.31
12.79
9.25
6.17
4.01
3.19
3.88
5.93
8.80
11.73
13.99
15.09
14.88
13.52
11.15
7.81
3.48
-1.73
-7.25
-11.91
-14.17
-12.58
-6.31
4.45
18.45
33.83
48.74
61.97
73.05
82.00
88.62
92.11
91.07
84.32
71.83
55.25
37.54
21.79
9.67
0.83
-6.55
-14.18
-22.32
-29.54
-33.97
-35.08
-34.73
-36.54
-43.88
-57.57
-75.01
-91.17
-100.85
-101.06
-91.87
-75.77
-55.99
-35.19
-15.02
3.35
18.58
29.01
33.27
31.11
23.82
14.08
5.06
-0.56
-1.37
2.49
9.55
17.44
23.60
25.84
22.86
14.40
1.32
-14.79
-31.83
-47.52
-59.58
-65.82
-64.53
-54.94
-37.63
-14.68
10.64
34.51
53.31
64.39
66.48
60.00
47.06
31.05
16.00
5.45
1.53
4.21
11.37
19.63
25.57
26.92
23.16
15.36
5.51
-4.24
-12.28
-17.87
-21.14
-22.89
-24.19
-25.95
-28.47
-31.22
-32.94
-32.15
-27.75
-19.55
-8.50
3.62
14.73
23.12
27.79
28.54
25.73
19.98
12.02
2.70
-6.95
-15.74
-22.48
-26.32
-27.04
-25.22
-22.07
-19.00
-17.10
-16.74
-17.54
-18.61
-19.06
-18.40
-16.74
-14.65
-12.92
-12.13
-12.63
-14.38
-17.11
-20.28
-23.09
-24.53
-23.52
-19.27
-11.76
-1.82
8.93
18.71
26.13
30.63
32.46
32.34
30.95
28.75
25.98
22.89
19.95
17.84
17.15
18.07
20.26
22.92
25.19
26.42
26.34
24.89
22.04
17.73
11.92
4.84
-2.96
-10.67
-17.52
-23.09
-27.32
-30.32
-32.01
-31.96
-29.45
-23.98
-15.74
-5.72
4.39
12.88
18.47
20.72
19.99
17.08
12.93
8.39
4.24
1.24
0.09
1.26
4.73
9.81
15.27
19.75
22.20
22.22
20.07
16.43
12.00
7.27
2.44
-2.48
-7.48
-12.54
-17.54
-22.33
-26.56
-29.70
-31.04
-29.88
-25.92
-19.41
-11.34
-3.10
3.93
8.76
11.01
10.91
9.08
6.28
3.22
0.46
-1.63
-2.95
-3.65
-4.10
-4.68
-5.64
-7.00
-8.53
-9.99
-11.23
-12.36
-13.65
-15.40
-17.80
-20.88
-24.49
-28.43
-32.36
-35.71
-37.64
-37.21
-33.61
-26.63
-16.86
-5.65
5.39
14.96
22.46
27.96
31.72
33.72
33.49
30.47
24.60
16.80
8.86
2.77
-0.17
0.11
2.49
5.32
7.20
7.53
6.53
4.72
2.40
-0.59
-4.76
-10.48
-17.52
-24.90
-30.98
-34.06
-32.93
-27.37
-18.25
-7.28
3.51
12.38
18.32
21.11
21.14
19.15
15.91
12.04
8.08
4.49
1.74
0.12
-0.19
0.65
2.19
3.83
4.94
5.02
3.81
1.36
-2.10
-6.24
-10.85
-15.78
-20.89
-25.84
-29.88
-31.94
-30.94
-26.28
-18.16
-7.67
3.56
13.88
22.08
27.63
30.55
31.25
30.23
28.05
25.25
22.36
19.88
18.15
17.37
17.58
18.57
19.93
21.08
21.37
20.34
17.83
14.07
9.52
4.55
-0.63
-5.99
-11.37
-16.17
-19.24
-19.19
-14.84
-5.85
6.84
21.05
33.82
42.23
44.41
40.23
31.35
20.63
10.97
4.27
0.83
-0.37
-0.82
-1.52
-2.56
-3.43
-3.62
-3.34
-3.55
-5.42
-9.67
-16.10
-23.78
-31.59
-38.75
-44.97
-50.14
-53.96
-55.69
-54.40
-49.42
-40.85
-29.73
-17.72
-6.69
1.82
6.88
8.26
6.42
2.36
-2.58
-7.08
-10.10
-11.22
-10.61
-8.93
-7.08
-5.78
-5.38
-5.62
-5.69
-4.55
-1.51
3.21
8.22
11.22
9.95
3.32
-7.61
-19.60
-28.22
-29.45
-21.25
-4.35
18.00
40.98
59.44
69.17
67.79
55.50
35.30
12.33
-7.31
-18.37
-17.86
-6.05
13.60
35.16
51.84
58.09
51.52
33.86
10.52
-11.52
-26.49
-31.97
-29.44
-22.73
-15.62
-9.87
-5.02
0.37
6.98
13.86
19.03
20.90
19.42
16.18
13.29
12.21
12.95
14.21
14.28
12.04
7.78
3.02
-0.04
0.31
4.44
11.14
18.01
22.53
22.97
19.00
11.61
2.57
-6.29
-13.53
-18.42
-20.76
-20.72
-18.63
-14.96
-10.32
-5.57
-1.74
0.16
-0.54
-3.68
-8.16
-12.14
-13.60
-11.18
-4.71
4.73
15.33
25.27
33.36
39.26
43.37
46.47
49.64
54.15
61.27
71.61
84.42
97.14
105.88
106.81
97.98
80.40
57.78
35.02
16.09
2.58
-6.43
-13.34
-20.43
-28.78
-37.98
-46.74
-53.62
-57.79
-59.17
-58.33
-56.21
-53.87
-52.15
-51.46
-51.73
-52.54
-53.48
-54.32
-55.09
-55.76
-55.92
-54.68
-51.01
-44.30
-34.90
-24.26
-14.43
-7.35
-4.05
-4.37
-7.13
-10.86
-14.42
-17.33
-19.66
-21.63
-23.30
-24.35
-24.31
-22.77
-19.74
-15.74
-11.78
-9.14
-8.91
-11.56
-16.52
-22.22
-26.53
-27.45
-23.98
-16.49
-6.60
3.51
11.91
17.55
20.30
20.65
19.19
16.28
12.04
6.60
0.43
-5.65
-10.62
-13.66
-14.55
-13.75
-12.36
-11.59
-12.44
-15.25
-19.77
-25.29
-30.89
-35.58
-38.48
-38.86
-36.28
-30.83
-23.19
-14.59
-6.45
0.02
4.08
5.55
4.64
1.83
-2.25
-6.78
-10.82
-13.40
-13.74
-11.56
-7.13
-1.29
4.86
10.18
13.68
14.68
12.82
8.27
1.79
-5.22
-10.99
-13.81
-12.59
-7.22
1.39
11.66
21.86
30.62
37.14
41.08
42.37
40.96
36.93
30.73
23.30
16.07
10.55
7.72
7.68
9.51
11.69
12.64
11.22
7.02
0.29
-8.16
-17.19
-25.41
-31.38
-33.88
-32.27
-26.80
-18.61
-9.41
-0.89
5.75
10.08
12.22
12.50
11.21
8.50
4.59
0.05
-4.17
-7.00
-7.59
-5.75
-2.04
2.34
6.00
7.79
7.15
4.25
-0.01
-4.24
-6.82
-6.33
-1.92
6.45
17.90
30.91
43.66
54.57
62.62
67.42
69.19
68.52
66.20
63.21
60.69
59.78
61.48
66.18
73.53
82.54
91.94
100.47
107.11
110.97
111.21
107.29
99.51
89.52
80.35
75.28
76.05
81.54
88.00
91.03
88.21
80.64
72.28
67.39
67.72
71.57
75.04
74.96
71.22
66.60
64.68
67.03
72.25
77.28
79.99
80.92
82.92
88.99
100.11
114.49
128.52
138.72
143.08
141.48
134.90
124.57
111.55
96.82
81.57
66.93
53.54
41.21
29.10
16.41
2.92
-10.90
-24.38
-37.02
-48.81
-60.08
-71.07
-81.65
-91.24
-99.05
-104.43
-107.22
-107.87
-107.33
-106.79
-107.23
-109.13
-112.26
-115.81
-118.71
-119.97
-119.02
-115.97
-111.61
-107.33
-104.80
-105.45
-109.99
-118.03
-127.99
-137.30
-143.06
-142.94
-136.01
-123.20
-107.09
-91.18
-78.71
-71.58
-69.82
-71.88
-75.47
-78.71
-80.74
-81.71
-82.23
-82.64
-82.79
-82.31
-81.18
-79.99
-79.58
-80.24
-81.00
-79.61
-73.53
-61.46
-44.45
-25.72
-9.26
2.16
8.17
10.72
12.69
16.31
22.23
29.65
37.15
43.43
47.44
48.04
43.75
33.01
15.41
-7.14
-29.98
-46.81
-52.04
-43.38
-23.26
1.72
23.32
35.03
34.65
24.91
11.84
1.70
-1.79
1.33
8.08
14.67
18.60
19.64
19.40
19.94
22.27
25.73
28.51
28.86
26.31
22.17
18.82
18.32
21.16
25.69
28.99
28.39
23.01
14.49
6.22
1.75
3.12
9.90
19.53
28.47
33.82
34.40
30.92
25.34
19.67
15.07
11.43
7.80
3.21
-2.60
-9.04
-15.03
-19.71
-22.88
-24.99
-26.70
-28.37
-29.88
-30.59
-29.65
-26.20
-19.72
-10.37
0.65
11.11
18.35
20.26
16.39
8.40
-0.53
-7.08
-9.23
-7.06
-2.46
2.01
4.37
3.84
0.89
-3.27
-7.28
-10.12
-11.43
-11.43
-10.90
-10.74
-11.52
-13.30
-15.66
-17.96
-19.83
-21.31
-22.73
-24.38
-26.22
-27.80
-28.52
-27.91
-25.94
-23.10
-20.09
-17.58
-15.85
-14.71
-13.56
-11.86
-9.53
-7.20
-6.12
-7.53
-11.99
-18.92
-26.74
-33.62
-38.32
-40.71
-41.53
-41.69
-41.42
-40.02
-36.32
-29.55
-20.10
-9.58
-0.20
6.29
9.37
9.86
9.40
9.53
11.01
13.58
16.24
17.87
17.74
15.84
12.82
9.76
7.71
7.38
8.81
11.46
14.47
16.93
18.32
18.50
17.66
16.08
13.95
11.28
8.07
4.48
0.94
-1.95
-3.65
-3.92
-2.78
-0.27
3.65
9.08
15.76
22.73
28.36
30.88
29.21
23.52
-0.00
-0.00
-0.00
-0.00
-0.00
-0.00
-0.00
-0.00
-0.00
-0.00
0.00
0.01
0.01
-0.00
-0.03
-0.05
-0.05
0.00
0.13
0.36
0.66
1.01
1.37
1.72
2.06
2.40
2.79
3.24
3.80
4.42
5.06
5.66
6.20
6.68
7.15
7.68
8.31
9.14
10.09
11.04
11.88
12.56
13.14
13.76
14.65
15.96
17.91
20.32
22.90
25.38
27.58
29.57
31.68
34.32
37.81
42.54
48.15
54.10
59.83
64.97
69.58
74.14
79.34
85.71
93.76
103.00
112.62
121.73
129.77
136.75
143.30
150.75
157.77
166.64
177.95
191.79
206.97
220.57
228.25
225.36
208.53
176.87
132.76
80.05
23.07
-34.94
-92.44
-149.16
-205.23
-260.37
-313.74
-363.87
-409.83
-450.91
-486.50
-515.74
-537.23
-549.22
-549.96
-538.37
-514.21
-478.67
-433.88
-382.45
-327.02
-269.84
-212.63
-156.66
-102.95
-52.37
-5.90
35.58
71.43
101.35
125.50
144.38
158.69
169.15
176.37
180.75
182.57
182.07
179.51
175.23
169.65
163.18
156.15
148.81
141.30
133.69
126.02
118.33
110.69
103.16
95.80
88.68
81.83
75.25
68.95
62.95
57.25
51.86
46.78
42.03
37.59
33.45
29.61
26.07
22.81
19.83
17.11
14.67
12.48
10.54
8.83
7.35
6.07
4.97
4.05
3.27
2.62
2.09
1.65
1.30
1.01
0.79
0.61
0.48
0.38
0.30
0.25
0.21
0.20
0.19
0.20
0.22
0.24
0.27
0.31
0.35
0.39
0.43
0.48
0.52
0.57
0.63
0.68
0.74
0.80
0.87
0.94
1.03
1.11
1.21
1.33
1.45
1.59
1.75
1.93
2.12
2.34
2.58
2.85
3.15
3.47
3.83
4.22
4.64
5.10
5.60
6.13
6.71
7.33
7.99
8.69
9.44
10.23
11.07
11.96
12.88
13.87
14.91
16.01
17.18
18.41
19.67
20.96
22.19
23.32
24.23
24.81
24.95
24.51
23.43
21.62
19.11
15.92
12.14
7.94
3.50
-0.98
-5.27
-9.18
-12.56
-15.29
-17.31
-18.61
-19.20
-19.17
-18.63
-17.64
-16.33
-14.81
-13.15
-11.44
-9.71
-7.93
-6.14
-4.33
-2.48
-0.60
1.28
3.13
4.95
6.74
8.59
10.48
12.41
14.45
16.58
18.80
21.07
23.36
25.74
28.38
31.17
34.17
37.39
40.81
44.30
47.69
50.85
53.81
56.87
59.98
63.28
66.91
70.80
74.67
78.10
80.71
82.42
83.55
84.04
84.09
83.81
82.86
80.41
75.16
65.53
49.68
30.60
9.59
-12.20
-33.98
-55.45
-76.78
-98.48
-121.20
-145.61
-172.25
-201.87
-233.96
-266.34
-295.28
-316.37
-326.02
-322.92
-308.58
-286.72
-262.32
-239.33
-219.75
-203.87
-191.09
-180.84
-172.79
-166.56
-161.16
-155.21
-146.95
-135.11
-119.61
-101.58
-82.91
-65.33
-49.78
-36.05
-23.27
-10.26
3.79
18.99
34.65
49.62
62.86
73.82
82.71
90.25
97.19
103.88
109.94
114.48
116.64
116.11
113.38
109.56
105.82
103.08
102.08
103.55
108.54
118.16
133.00
152.46
174.60
196.60
215.75
230.40
240.30
246.38
250.02
252.30
253.76
254.70
255.50
257.02
260.52
267.11
276.87
288.39
298.63
303.77
300.42
286.90
263.60
232.56
196.30
156.88
115.51
73.07
30.86
-9.02
-43.90
-71.45
-90.41
-100.83
-103.75
-100.58
-92.66
-81.34
-68.23
-55.30
-44.59
-37.61
-34.89
-35.78
-38.86
-42.65
-46.17
-49.27
-52.46
-56.45
-61.68
-68.06
-75.01
-81.77
-87.74
-92.65
-96.70
-100.44
-104.47
-109.20
-114.60
-120.20
-125.30
-129.45
-132.87
-136.57
-142.05
-150.61
-162.72
-177.64
-193.81
-209.46
-223.36
-235.22
-245.47
-254.84
-263.76
-271.90
-278.05
-280.29
-276.49
-265.03
-245.45
-218.72
-187.07
-153.30
-119.82
-88.13
-58.68
-31.40
-6.38
15.82
34.29
48.33
58.04
64.44
69.02
73.06
76.96
80.24
81.90
81.25
78.41
74.41
70.87
69.20
70.08
73.19
77.36
81.18
83.48
83.75
82.08
78.98
74.98
70.46
65.65
60.67
55.72
51.07
46.99
43.54
40.56
37.73
34.75
31.52
28.20
25.07
22.30
19.91
17.68
15.28
12.44
9.08
5.25
1.20
-2.76
-6.25
-8.92
-10.58
-11.19
-10.92
-10.07
-8.92
-7.63
-6.23
-4.73
-3.17
-1.67
-0.40
0.57
1.26
1.78
2.25
2.66
2.92
2.90
2.59
2.10
1.65
1.41
1.45
1.66
1.82
1.68
1.13
0.21
-0.84
-1.64
-1.77
-0.92
0.95
3.62
6.63
9.48
11.76
13.33
14.30
14.89
15.27
15.45
15.27
14.60
13.46
12.10
10.95
10.31
10.20
10.28
10.06
9.14
7.45
5.28
3.01
0.92
-1.02
-3.06
-5.41
-8.12
-10.88
-13.26
-14.88
-15.62
-15.61
-15.07
-14.13
-12.77
-10.92
-8.64
-6.22
-4.10
-2.67
-2.05
-2.09
-2.45
-2.84
-3.19
-3.58
-4.23
-5.28
-6.78
-8.67
-10.86
-13.30
-15.92
-18.71
-21.65
-24.64
-27.58
-30.21
-32.24
-33.33
-33.20
-31.82
-29.41
-26.47
-23.51
-20.91
-18.76
-16.89
-14.99
-12.83
-10.41
-7.96
-5.83
-4.36
-3.69
-3.68
-3.96
-4.06
-3.62
-2.53
-1.01
0.42
1.17
0.66
-1.34
-4.67
-8.71
-12.53
-15.14
-15.73
-13.93
-9.86
-4.05
2.67
9.46
15.58
20.52
24.10
26.34
27.45
27.75
27.58
27.20
26.82
26.47
26.09
25.58
24.85
23.85
22.61
21.14
19.34
16.97
13.71
9.31
3.79
-2.35
-8.19
-12.59
-14.47
-13.21
-8.77
-1.75
6.82
15.78
23.99
30.61
35.15
37.52
37.99
37.06
35.33
33.29
31.28
29.42
27.79
26.46
25.56
25.21
25.39
25.91
26.38
26.33
25.31
23.07
19.58
15.09
10.12
5.40
1.80
0.19
1.24
5.22
11.77
19.89
28.10
34.80
38.65
39.10
36.40
31.59
26.09
21.24
17.99
16.68
17.21
19.16
22.00
25.22
28.24
30.44
31.21
30.06
26.81
21.66
15.19
8.23
1.65
-3.83
-7.77
-10.02
-10.70
-10.13
-8.66
-6.67
-4.47
-2.32
-0.50
0.75
1.20
0.76
-0.50
-2.31
-4.33
-6.24
-7.81
-9.00
-9.85
-10.47
-10.98
-11.49
-12.10
-12.89
-13.92
-15.27
-17.01
-19.30
-22.26
-25.89
-29.87
-33.51
-35.88
-36.04
-33.50
-28.37
-21.45
-13.96
-7.13
-1.80
1.67
3.50
4.13
4.07
3.64
2.92
1.92
0.61
-0.91
-2.49
-3.94
-5.17
-6.23
-7.21
-8.31
-9.64
-11.32
-13.49
-16.30
-19.93
-24.40
-29.41
-34.23
-37.77
-38.95
-36.97
-31.80
-24.20
-15.50
-7.17
-0.34
4.38
7.00
7.89
7.47
6.07
3.85
0.89
-2.63
-6.43
-10.09
-13.26
-15.72
-17.49
-18.87
-20.28
-22.29
-25.45
-30.15
-36.55
-44.30
-52.48
-59.51
-63.56
-62.94
-56.83
-45.63
-31.00
-15.35
-1.11
9.97
17.20
20.84
21.72
20.70
18.41
15.17
11.19
6.77
2.38
-1.48
-4.51
-6.77
-8.76
-11.12
-14.55
-19.54
-26.35
-35.04
-45.29
-56.23
-66.28
-73.18
-74.64
-69.14
-56.67
-38.90
-18.73
0.73
17.06
29.11
36.85
40.92
42.04
40.72
37.34
32.40
26.65
21.10
16.65
13.80
12.43
11.88
11.14
9.26
5.46
-0.76
-9.60
-20.94
-34.12
-47.69
-59.28
-66.05
-65.49
-56.37
-39.41
-17.24
6.42
27.98
45.00
56.66
63.46
66.56
67.08
65.76
63.07
59.40
55.30
51.42
48.38
46.50
45.72
45.72
45.96
45.99
45.36
43.59
40.09
34.36
26.34
16.78
7.55
1.20
0.25
6.13
18.45
35.07
52.74
68.29
79.56
85.82
87.57
85.88
81.90
76.48
70.19
63.42
56.42
49.36
42.23
34.94
27.42
19.66
11.81
4.00
-3.69
-11.36
-19.37
-28.22
-38.30
-49.47
-60.69
-70.02
-74.97
-73.34
-64.08
-47.88
-27.11
-5.14
14.69
29.93
39.52
43.71
43.64
40.78
36.57
32.14
28.20
25.06
22.65
20.72
18.87
16.80
14.28
11.17
7.40
2.91
-2.51
-9.16
-17.48
-27.71
-39.61
-52.08
-63.19
-70.49
-71.74
-65.72
-52.64
-34.23
-13.24
7.37
25.04
38.14
46.07
49.23
48.75
46.18
43.10
40.70
39.52
39.43
39.76
39.76
38.88
36.90
34.02
30.51
26.57
22.15
16.93
10.45
2.27
-7.80
-19.45
-31.63
-42.56
-49.96
-51.66
-46.36
-34.17
-16.81
2.86
21.62
36.79
46.79
51.33
51.16
47.70
42.48
36.96
32.17
28.63
26.37
24.93
23.74
22.22
20.07
17.25
13.90
10.24
6.38
2.31
-2.18
-7.45
-13.95
-22.04
-31.65
-41.92
-51.18
-57.10
-57.42
-50.72
-37.06
-18.13
3.20
23.64
40.42
51.97
58.05
59.53
57.81
54.33
50.21
46.15
42.58
39.63
37.33
35.46
33.64
31.37
28.24
24.06
19.00
13.42
7.78
2.34
-3.01
-8.83
-15.88
-24.80
-35.56
-47.08
-57.19
-63.02
-62.02
-52.98
-36.66
-15.82
5.74
24.42
37.87
45.49
48.02
46.92
43.60
39.12
34.18
29.33
25.08
21.81
19.59
18.18
16.96
15.27
12.59
8.79
4.11
-1.01
-6.11
-10.98
-15.83
-21.28
-28.16
-37.03
-47.71
-58.82
-67.89
-72.06
-69.05
-58.18
-40.81
-19.98
0.71
18.23
30.90
38.52
41.85
41.93
39.68
35.86
31.33
27.08
24.09
22.90
23.29
24.27
24.48
22.84
19.01
13.53
7.47
1.83
-2.88
-6.91
-11.16
-16.72
-24.50
-34.62
-46.18
-57.22
-65.08
-67.29
-62.34
-50.34
-33.10
-13.50
5.36
21.07
32.31
38.83
41.12
39.92
36.15
30.86
25.23
20.40
17.14
15.55
15.06
14.70
13.58
11.29
8.01
4.23
0.47
-3.09
-6.76
-11.12
-16.82
-24.36
-33.82
-44.79
-56.21
-66.36
-73.09
-74.30
-68.65
-56.16
-38.39
-18.05
1.81
18.72
31.34
39.45
43.55
44.41
42.80
39.48
35.27
31.11
27.82
25.80
24.89
24.41
23.48
21.44
18.08
13.71
8.86
4.10
-0.33
-4.54
-9.03
-14.55
-21.83
-31.37
-42.97
-55.49
-66.78
-74.09
-74.94
-68.03
-53.86
-34.69
-13.79
5.65
21.48
32.91
40.22
44.15
45.30
44.02
40.62
35.79
30.67
26.62
24.63
24.80
26.27
27.49
26.99
23.99
18.68
12.10
5.57
0.04
-4.25
-7.92
-12.11
-18.02
-26.44
-37.29
-49.56
-61.28
-70.00
-73.33
-69.73
-59.07
-42.70
-23.17
-3.40
14.18
28.10
37.95
44.05
46.95
47.18
45.22
41.68
37.38
33.36
30.53
29.24
29.19
29.42
28.85
26.61
22.51
16.98
10.85
4.91
-0.39
-5.07
-9.51
-14.31
-20.06
-27.25
-36.16
-46.52
-57.35
-66.78
-72.35
-71.75
-63.72
-48.69
-28.88
-7.48
12.43
28.86
41.32
50.34
56.76
61.02
63.05
62.54
59.58
54.89
49.75
45.45
42.73
41.42
40.53
38.76
35.10
29.27
21.80
13.76
6.29
0.12
-4.65
-8.53
-12.40
-17.13
-23.30
-31.08
-39.99
-48.96
-56.38
-60.34
-59.16
-51.94
-38.97
-21.80
-2.93
15.05
30.05
40.92
47.54
50.37
50.20
47.79
43.91
39.26
34.60
30.52
27.37
25.12
23.41
21.64
19.25
15.91
11.62
6.68
1.56
-3.27
-7.58
-11.47
-15.32
-19.72
-25.19
-31.97
-39.84
-48.08
-55.49
-60.62
-62.15
-59.21
-51.70
-40.47
-27.09
-13.51
-1.58
7.40
12.87
14.98
14.39
11.96
8.56
4.89
1.45
-1.51
-3.94
-5.97
-7.81
-9.76
-12.01
-14.64
-17.60
-20.68
-23.70
-26.58
-29.47
-32.75
-36.96
-42.56
-49.58
-57.36
-64.50
-69.00
-68.83
-62.74
-50.72
-34.25
-15.84
1.74
16.22
26.32
31.77
33.04
31.02
26.73
21.28
15.75
11.02
7.56
5.31
3.69
1.89
-0.73
-4.45
-9.08
-14.13
-19.12
-23.76
-28.08
-32.43
-37.33
-43.26
-50.45
-58.52
-66.36
-72.24
-74.26
-70.94
-61.93
-48.24
-32.09
-16.26
-3.35
4.86
7.72
5.71
0.04
-7.66
-15.90
-23.71
-30.86
-37.85
-45.56
-54.81
-65.80
-78.09
-90.73
-102.70
-113.30
-122.26
-129.70
-136.01
-141.79
-147.84
-155.01
-163.72
-173.30
-181.61
-185.46
-181.48
-167.64
-144.21
-113.78
-80.51
-48.69
-21.67
-1.27
12.19
19.52
22.35
22.81
23.33
26.09
32.48
42.64
55.38
68.78
80.80
89.92
95.46
97.29
95.52
90.24
81.51
69.58
55.08
39.25
23.72
10.34
0.81
-3.72
-2.72
3.56
14.17
27.69
42.36
56.41
68.26
76.79
81.52
82.61
80.81
77.17
72.81
68.76
65.72
64.11
63.93
64.82
66.04
66.65
65.70
62.51
56.77
48.55
38.25
26.47
13.91
1.58
-9.23
-16.92
-19.84
-16.86
-7.78
6.34
23.31
40.47
55.31
66.12
72.24
73.92
72.01
67.59
61.79
55.61
49.92
45.36
42.24
40.47
39.60
39.19
38.75
37.92
36.42
34.01
30.41
25.41
18.86
10.78
1.87
-6.48
-12.31
-13.53
-8.52
3.00
19.98
40.06
60.29
78.37
92.87
103.31
109.87
113.07
113.43
111.90
109.53
107.45
107.72
111.89
120.38
132.31
145.84
158.25
167.63
172.41
171.43
166.36
159.26
151.67
144.05
136.13
126.58
116.06
105.68
96.47
92.50
96.57
108.70
126.12
144.79
159.66
169.56
174.35
173.53
170.29
166.90
163.72
160.10
156.18
152.10
152.70
162.23
154.90
113.85
35.81
-67.02
-175.97
-262.42
-328.41
-378.21
-414.45
-438.07
-446.90
-437.35
-409.11
-366.31
-316.13
-268.44
-228.37
-198.52
-179.49
-166.65
-154.77
-140.81
-124.85
-109.16
-98.01
-92.19
-91.06
-93.19
-94.69
-92.07
-83.99
-71.61
-57.86
-47.20
-42.01
-43.50
-51.74
-64.39
-77.95
-88.91
-94.51
-93.36
-86.03
-73.77
-58.79
-43.76
-30.62
-20.45
-13.69
-10.35
-10.14
-12.69
-17.06
-22.06
-26.43
-29.17
-29.70
-28.06
-24.84
-20.90
-16.97
-13.52
-10.65
-8.32
-6.54
-5.35
-4.73
-4.22
-2.81
1.03
8.77
21.20
37.88
57.09
76.23
92.65
104.39
110.61
111.59
108.31
102.04
93.91
84.79
75.33
66.11
57.67
50.48
44.76
40.32
36.56
32.56
27.42
20.54
11.79
1.51
-9.54
-20.35
-29.76
-36.47
-39.27
-37.29
-30.36
-19.29
-5.88
7.45
18.30
24.94
26.74
24.21
18.61
11.44
3.99
-2.94
-8.96
-13.95
-17.89
-20.77
-22.65
-23.71
-24.31
-24.94
-26.09
-28.14
-31.33
-35.68
-40.95
-46.56
-51.53
-54.53
-54.15
-49.33
-39.76
-26.20
-10.31
5.69
19.69
30.17
36.44
38.61
37.38
33.73
28.74
23.43
18.68
15.10
12.94
12.05
11.91
11.86
11.30
9.82
7.28
3.71
-0.79
-6.18
-12.45
-19.43
-26.61
-32.93
-36.95
-37.19
-32.69
-23.53
-10.91
3.08
16.07
26.10
32.04
33.70
31.65
26.91
20.62
13.91
7.75
2.85
-0.41
-2.09
-2.57
-2.42
-2.26
-2.58
-3.67
-5.63
-8.45
-12.05
-16.38
-21.37
-26.85
-32.30
-36.78
-38.93
-37.38
-31.17
-20.32
-6.00
9.76
24.63
36.66
44.77
48.81
49.38
47.48
44.17
40.46
37.18
35.00
34.30
35.17
37.37
40.43
43.71
46.51
48.19
48.20
46.22
42.18
36.17
28.48
19.53
9.93
0.60
-7.24
-12.22
-13.27
-10.09
-3.41
5.08
13.25
19.21
21.80
20.80
16.72
10.38
2.70
-5.57
-13.72
-21.15
-27.31
-31.87
-34.70
-36.02
-36.22
-35.86
-35.48
-35.53
-36.34
-38.09
-40.89
-44.78
-49.72
-55.41
-61.07
-65.40
-66.69
-63.39
-54.73
-41.28
-24.91
-8.30
5.97
16.21
21.99
23.98
23.35
21.26
18.53
15.67
13.06
11.06
9.98
9.91
10.55
11.24
11.19
9.80
6.98
3.12
-1.19
-5.53
-9.97
-14.99
-21.06
-28.01
-34.68
-39.13
-39.34
-34.16
-23.96
-10.64
3.06
14.48
21.96
25.11
24.61
21.62
17.28
12.39
7.46
2.83
-1.20
-4.35
-6.46
-7.64
-8.27
-8.99
-10.41
-12.97
-16.75
-21.56
-27.02
-32.81
-38.59
-43.91
-48.00
-49.72
-47.76
-41.20
-29.98
-15.20
1.06
16.34
28.53
36.44
40.02
40.06
37.80
34.42
30.78
27.43
24.62
22.43
20.83
19.68
18.74
17.70
16.26
14.21
11.50
8.21
4.46
0.27
-4.52
-10.16
-16.71
-23.76
-30.17
-34.33
-34.54
-29.75
-20.08
-6.93
7.39
20.39
30.12
35.65
37.09
35.25
31.24
26.17
20.94
16.28
12.70
10.47
9.51
9.44
9.61
9.34
8.16
5.94
2.85
-0.79
-4.77
-9.14
-14.16
-20.15
-27.05
-34.16
-40.10
-43.08
-41.57
-34.91
-23.72
-9.78
4.47
16.73
25.45
30.12
31.17
29.59
26.48
22.84
19.35
16.45
14.39
13.24
12.85
12.97
13.22
13.23
12.74
11.60
9.79
7.36
4.30
0.54
-4.11
-9.76
-16.22
-22.70
-27.82
-29.90
-27.49
-20.05
-8.28
5.95
20.06
31.62
38.97
41.53
39.79
34.86
28.21
21.26
15.25
11.07
9.18
9.55
11.58
14.36
16.80
17.99
17.43
15.06
11.23
6.44
1.10
-4.64
-10.88
-17.73
-24.99
-31.90
-37.07
-38.86
-35.94
-27.85
-15.39
-0.54
14.07
25.89
33.13
35.15
32.47
26.42
18.64
10.66
3.60
-1.89
-5.57
-7.57
-8.23
-8.07
-7.63
-7.41
-7.66
-8.43
-9.55
-10.83
-12.32
-14.32
-17.32
-21.61
-26.86
-31.95
-35.11
-34.55
-29.19
-19.26
-6.32
7.19
18.74
26.53
29.90
29.29
25.88
21.11
16.21
12.02
8.95
7.09
6.25
6.08
6.14
5.91
4.92
2.83
-0.45
-4.78
-9.84
-15.26
-20.77
-26.16
-31.20
-35.42
-37.96
-37.74
-33.84
-25.93
-14.67
-1.61
11.18
21.74
28.76
31.91
31.63
28.89
24.78
20.22
15.88
12.19
9.36
7.49
6.54
6.39
6.73
7.20
7.35
6.78
5.26
2.67
-0.90
-5.28
-10.20
-15.12
-19.25
-21.49
-20.61
-15.63
-6.18
7.20
23.16
39.81
55.27
68.01
77.09
82.19
83.43
81.37
76.95
71.45
66.30
62.75
61.53
62.60
65.30
68.69
72.09
75.52
79.67
85.61
94.22
105.65
119.24
133.65
147.09
157.69
163.72
163.98
158.10
146.77
131.54
114.10
95.39
75.02
51.38
22.53
-12.69
-53.68
-98.09
-142.33
-182.40
-214.62
-236.03
-244.75
-240.34
-224.18
-199.48
-170.67
-142.23
-117.54
-98.23
-84.33
-74.95
-68.93
-65.01
-61.71
-57.49
-51.22
-42.96
-34.26
-27.52
-24.72
-26.08
-29.77
-32.75
-32.44
-27.89
-20.03
-10.72
-1.53
6.81
14.15
20.03
23.13
21.61
14.04
0.30
-18.16
-38.98
-59.70
-78.34
-93.39
-103.39
-106.59
-101.13
-85.70
-60.38
-27.07
10.32
46.55
76.02
93.96
97.53
86.47
62.88
30.64
-5.34
-39.77
-67.45
-83.71
-85.23
-71.04
-43.23
-6.97
30.71
62.60
83.23
89.88
82.67
63.81
36.82
5.89
-24.30
-48.90
-63.51
-65.14
-53.17
-29.79
0.54
32.53
61.69
85.47
103.50
116.56
125.11
128.35
124.19
110.55
86.94
55.40
20.17
-13.86
-43.00
-65.87
-83.37
-97.56
-110.16
-121.80
-132.07
-140.28
-146.28
-150.75
-154.72
-158.73
-162.22
-163.54
-160.81
-153.02
-140.78
-126.47
-113.35
-104.42
-101.29
-103.82
-110.59
-119.66
-129.25
-137.96
-144.49
-147.30
-144.66
-135.19
-118.59
-96.10
-70.38
-44.60
-21.43
-2.28
12.62
23.75
31.59
36.42
38.50
38.63
38.34
39.56
43.91
51.97
62.98
75.09
86.24
94.75
99.88
101.73
100.87
97.98
93.54
87.90
81.36
74.38
67.59
61.67
57.16
54.22
52.57
51.55
50.26
47.88
43.79
37.76
30.01
21.24
12.57
5.48
1.50
1.79
6.74
15.72
27.18
39.08
49.46
56.99
61.17
62.23
60.83
57.74
53.69
49.26
44.93
41.06
37.85
35.33
33.29
31.36
29.10
26.14
22.28
17.61
12.38
6.97
1.78
-2.76
-6.16
-7.77
-6.90
-3.07
3.71
12.68
22.42
31.22
37.57
40.61
40.27
37.02
31.70
25.11
17.98
10.97
4.67
-0.53
-4.56
-7.72
-10.55
-13.54
-16.92
-20.49
-23.78
-26.26
-27.72
-28.41
-29.17
-30.98
-34.71
-40.50
-47.55
-54.23
-58.59
-59.08
-55.09
-47.08
-36.36
-24.49
-12.87
-2.45
6.26
12.99
17.68
20.44
21.65
21.89
21.83
21.90
22.15
22.27
21.77
20.30
17.79
14.49
10.79
6.93
2.92
-1.48
-6.52
-12.09
-17.48
-21.48
-22.63
-19.84
-12.84
-2.37
10.06
22.64
33.76
42.34
47.83
50.13
49.37
45.89
40.37
33.75
27.21
21.83
18.27
16.56
16.10
15.94
15.18
13.34
10.41
6.72
2.62
-1.81
-6.83
-12.78
-19.82
-27.34
-33.97
-37.85
-37.25
-31.39
-20.81
-7.31
6.62
18.71
27.49
32.62
34.55
34.14
32.18
29.13
25.33
21.03
16.66
12.76
9.80
7.96
7.06
6.58
5.96
4.83
3.12
0.96
-1.58
-4.67
-8.75
-14.09
-20.47
-26.81
-31.32
-32.10
-27.82
-18.36
-4.97
10.13
24.37
35.48
42.04
43.59
40.68
34.62
27.21
20.29
15.34
13.16
13.76
16.45
20.11
23.50
25.54
25.43
22.83
17.87
11.16
3.62
-3.79
-10.44
-16.25
-21.62
-27.13
-32.99
-38.65
-42.81
-43.79
-40.22
-31.78
-19.41
-5.16
8.47
19.33
26.17
28.85
28.09
25.07
20.92
16.57
12.63
9.42
7.10
5.59
4.68
4.06
3.38
2.47
1.29
-0.07
-1.56
-3.27
-5.48
-8.55
-12.77
-18.18
-24.40
-30.63
-35.72
-38.39
-37.58
-32.78
-24.25
-13.05
-0.77
10.89
20.52
27.22
30.54
30.32
26.49
19.20
8.97
-3.05
-15.02
-24.76
-30.21
-30.01
-23.95
-13.06
0.68
14.75
26.67
34.36
36.50
32.55
22.80
8.28
-9.38
-28.09
-45.47
-59.03
-66.55
-66.44
-58.22
-42.78
-22.47
-0.60
19.29
34.35
43.07
45.49
42.88
37.14
30.11
23.16
17.11
12.26
8.58
5.90
3.90
2.25
0.62
-1.28
-3.58
-6.31
-9.32
-12.44
-15.54
-18.70
-22.27
-26.70
-32.29
-38.73
-44.95
-49.25
-49.78
-45.34
-35.86
-22.62
-7.81
6.17
17.38
24.81
28.36
28.57
26.26
22.33
17.64
13.03
9.23
6.70
5.46
5.10
4.95
4.37
3.07
1.15
-1.05
-3.24
-5.38
-7.84
-11.13
-15.71
-21.65
-28.41
-34.86
-39.49
-40.82
-37.82
-30.32
-19.12
-5.83
7.59
19.24
27.76
32.42
33.26
30.87
26.26
20.73
15.52
11.63
9.54
9.24
10.24
11.83
13.31
14.04
13.55
11.47
7.59
1.89
-5.41
-13.88
-22.91
-31.75
-39.53
-45.23
-47.75
-46.12
-39.81
-29.13
-15.32
-0.41
13.33
24.04
30.79
33.64
33.48
31.52
28.88
26.32
24.19
22.55
21.29
20.20
19.13
17.94
16.55
14.94
13.13
11.07
8.72
5.95
2.60
-1.55
-6.71
-12.93
-19.91
-26.78
-32.19
-34.52
-32.49
-25.68
-14.88
-1.91
10.93
21.56
28.69
31.97
31.91
29.45
25.68
21.59
17.85
14.88
12.76
11.35
10.42
9.69
8.90
7.83
6.26
3.95
0.77
-3.29
-8.14
-13.61
-19.59
-25.98
-32.52
-38.57
-43.02
-44.48
-41.72
-34.29
-22.87
-9.14
4.65
16.41
24.77
29.31
30.46
29.02
25.95
22.03
17.88
13.99
10.73
8.40
7.10
6.67
6.72
6.69
5.99
4.23
1.29
-2.66
-7.36
-12.54
-18.07
-23.82
-29.44
-34.17
-36.84
-36.22
-31.49
-22.72
-11.03
1.65
13.17
21.79
26.65
27.90
26.51
23.81
21.01
18.84
17.50
16.69
15.98
15.05
13.79
12.33
10.81
9.24
7.46
5.24
2.40
-0.99
-4.82
-8.98
-13.51
-18.48
-23.66
-28.39
-31.44
-31.46
-27.49
-19.49
-8.48
3.72
15.11
24.10
29.91
32.51
32.42
30.34
27.01
23.10
19.24
15.99
13.75
12.66
12.60
13.18
13.89
14.23
13.76
12.23
9.51
5.61
0.61
-5.34
-12.03
-19.12
-25.90
-31.33
-34.19
-33.35
-28.31
-19.48
-8.27
3.36
13.41
20.42
23.84
23.87
21.28
17.05
12.12
7.31
3.19
0.09
-2.00
-3.31
-4.17
-4.86
-5.57
-6.36
-7.28
-8.47
-10.17
-12.66
-16.24
-21.01
-26.78
-32.96
-38.43
-41.82
-41.80
-37.61
-29.42
-18.38
-6.27
5.09
14.32
20.79
24.46
25.64
24.76
22.26
18.69
14.75
11.18
8.61
7.34
7.21
7.73
8.27
8.27
7.42
5.64
2.95
-0.72
-5.50
-11.49
-18.38
-25.21
-30.25
-31.48
-27.35
-17.53
-3.38
12.42
26.79
37.24
42.61
43.16
39.93
34.17
26.78
18.41
9.70
1.54
-5.00
-9.18
-11.00
-11.41
-11.90
-13.85
-17.88
-23.60
-29.91
-35.67
-40.22
-43.62
-46.30
-48.44
-49.58
-48.63
-44.46
-36.59
-25.65
-13.28
-1.52
8.04
14.75
18.91
21.33
22.69
23.16
22.51
20.41
16.97
12.87
9.12
6.67
5.94
6.66
8.04
9.17
9.39
8.40
6.19
2.77
-1.88
-7.58
-13.70
-18.92
-21.51
-19.85
-13.20
-2.07
11.73
25.77
37.67
45.80
49.47
48.93
44.99
38.84
31.74
24.80
18.88
14.36
11.23
9.11
7.51
5.93
3.97
1.29
-2.34
-6.99
-12.56
-18.70
-24.93
-30.65
-35.26
-38.13
-38.66
-36.39
-31.21
-23.56
-14.47
-5.35
2.42
7.82
10.40
10.31
8.08
4.46
0.18
-4.02
-7.58
-10.05
-11.25
-11.30
-10.52
-9.43
-8.59
-8.48
-9.52
-12.02
-16.12
-21.71
-28.27
-34.78
-39.83
-41.95
-40.06
-33.96
-24.51
-13.35
-2.46
6.58
12.90
16.47
17.72
17.25
15.47
12.69
9.22
5.54
2.26
-0.08
-1.24
-1.33
-0.82
-0.36
-0.55
-1.86
-4.66
-9.21
-15.59
-23.49
-31.98
-39.54
-44.27
-44.52
-39.47
-29.52
-16.22
-1.81
11.47
21.99
29.02
32.63
33.43
32.19
29.68
26.59
23.50
20.90
19.12
18.21
17.91
17.73
17.06
15.37
12.40
8.20
3.04
-2.67
-8.53
-14.15
-19.05
-22.57
-23.86
-22.03
-16.56
-7.62
3.78
15.92
26.95
35.35
40.43
42.34
41.87
40.02
37.63
35.11
32.50
29.59
26.17
22.21
17.92
13.70
9.93
6.83
4.29
1.86
-1.05
-4.99
-10.27
-16.81
-24.13
-31.36
-37.32
-40.68
-40.29
-35.44
-26.29
-13.95
-0.44
11.89
20.92
25.43
25.31
21.58
15.82
9.74
4.78
1.92
1.71
4.34
9.58
16.68
24.28
30.59
33.73
32.36
26.19
16.13
4.05
-7.84
-17.67
-24.55
-28.69
-31.21
-33.69
-37.52
-43.29
-50.49
-57.54
-62.21
-62.42
-57.00
-46.18
-31.53
-15.44
-0.29
12.18
21.12
26.51
28.79
28.57
26.52
23.40
20.09
17.50
16.32
16.78
18.54
20.80
22.54
22.97
21.73
19.15
16.02
13.30
11.64
11.08
10.91
9.96
7.03
1.46
-6.55
-15.85
-24.61
-30.85
-32.97
-30.20
-22.81
-12.01
0.34
12.29
22.21
29.11
32.70
33.22
31.25
27.49
22.75
17.86
13.68
10.87
9.73
10.04
11.08
11.90
11.68
10.02
7.08
3.42
-0.27
-3.48
-6.08
-8.33
-10.75
-13.95
-18.37
-24.10
-30.68
-37.10
-41.89
-43.60
-41.17
-34.39
-24.03
-11.68
0.81
11.75
19.98
25.02
26.89
25.96
22.81
18.29
13.40
9.23
6.65
6.06
7.25
9.52
11.89
13.52
13.98
13.23
11.64
9.64
7.58
5.58
3.51
1.06
-2.20
-6.65
-12.41
-19.09
-25.70
-30.67
-32.33
-29.49
-21.93
-10.67
2.36
14.85
24.93
31.60
34.86
35.42
34.25
32.16
29.76
27.48
25.71
24.70
24.40
24.23
23.14
20.00
14.14
5.84
-3.58
-12.16
-18.11
-20.59
-20.05
-18.12
-16.98
-18.54
-23.85
-32.70
-43.65
-54.43
-62.46
-65.59
-62.61
-53.67
-40.19
-24.44
-8.94
4.21
13.73
19.29
21.40
21.20
20.17
19.78
21.11
24.49
29.34
34.36
37.99
39.09
37.36
33.40
28.35
23.35
19.08
15.66
12.79
10.04
7.07
3.56
-0.82
-6.43
-13.43
-21.51
-29.54
-35.79
-38.31
-35.72
-27.79
-15.62
-1.32
12.70
24.44
32.78
37.49
38.94
37.68
34.23
29.02
22.53
15.50
8.91
3.73
0.69
-0.06
1.06
3.16
5.28
6.71
7.19
6.86
6.08
5.09
3.86
2.02
-0.91
-5.30
-11.09
-17.66
-23.88
-28.35
-29.79
-27.46
-21.36
-12.36
-1.87
8.54
17.54
24.31
28.52
30.18
29.42
26.49
21.85
16.20
10.50
5.71
2.46
0.88
0.50
0.62
0.62
0.22
-0.46
-1.10
-1.50
-1.73
-2.15
-3.25
-5.43
-8.95
-13.81
-19.73
-26.12
-32.11
-36.47
-37.99
-35.71
-29.37
-19.61
-7.86
4.00
14.18
21.44
25.27
25.87
23.86
20.08
15.34
10.37
5.87
2.36
0.18
-0.64
-0.37
0.43
1.12
1.14
0.21
-1.73
-4.48
-7.72
-11.19
-14.77
-18.56
-22.79
-27.70
-33.17
-38.62
-42.87
-44.48
-42.20
-35.54
-25.07
-12.36
0.49
11.53
19.39
23.50
23.99
21.46
16.83
11.21
5.84
1.92
0.30
1.18
3.98
7.48
10.28
11.23
9.83
6.29
1.26
-4.45
-10.23
-15.75
-21.01
-26.13
-31.13
-35.86
-39.74
-41.84
-41.12
-36.79
-28.74
-17.76
-5.48
6.11
15.25
20.88
22.83
21.68
18.35
13.87
9.11
4.80
1.50
-0.41
-0.84
-0.07
1.32
2.61
3.15
2.60
0.91
-1.67
-4.82
-8.34
-12.24
-16.82
-22.29
-28.62
-35.09
-40.35
-42.68
-40.64
-33.70
-22.61
-9.24
4.02
15.09
22.70
26.67
27.55
26.21
23.49
19.97
16.15
12.48
9.47
7.46
6.56
6.46
6.60
6.30
5.13
3.00
0.12
-3.17
-6.71
-10.59
-15.13
-20.49
-26.38
-31.77
-35.07
-34.68
-29.58
-19.93
-7.10
6.71
19.23
28.76
34.59
36.88
36.38
34.00
30.61
26.98
23.79
21.64
20.92
21.68
23.54
25.84
27.89
29.25
29.91
30.21
30.65
31.59
33.04
34.62
35.77
36.19
36.16
36.80
39.81
46.88
58.90
75.44
94.43
112.67
126.54
132.96
130.09
117.78
97.38
71.38
42.80
14.54
-11.03
-32.46
-49.30
-61.97
-71.51
-79.17
-85.97
-92.35
-98.05
-102.22
-103.92
-102.54
-98.19
-91.63
-83.97
-76.13
-68.55
-61.24
-54.10
-47.31
-41.41
-37.06
-34.52
-33.49
-33.15
-32.56
-30.87
-27.50
-22.10
-14.74
-5.95
2.96
10.31
14.61
15.41
13.80
12.09
12.80
17.34
25.22
34.12
40.86
42.62
37.89
26.89
11.31
-6.17
-22.38
-34.30
-39.65
-37.39
-28.05
-13.66
2.69
17.62
28.28
32.88
31.03
23.54
12.13
-0.98
-13.51
-23.46
-29.37
-30.54
-27.18
-20.31
-11.54
-2.70
4.56
9.15
10.75
9.70
6.79
2.81
-1.84
-7.21
-13.60
-21.13
-29.19
-36.40
-40.81
-40.68
-35.18
-24.81
-11.42
2.49
14.52
23.16
27.95
29.34
28.19
25.38
21.61
17.47
13.61
10.86
10.11
12.01
16.73
23.74
31.74
38.88
43.05
42.44
36.06
24.24
8.80
-7.37
-20.96
-29.26
-30.77
-25.57
-14.99
-1.03
14.29
29.56
43.93
56.95
68.14
76.67
81.46
81.54
76.68
67.70
56.46
45.25
36.06
29.93
26.79
25.82
25.97
26.44
26.67
26.24
24.56
20.86
14.44
5.08
-6.75
-19.87
-32.85
-44.48
-54.04
-61.32
-66.34
-68.96
-68.86
-65.73
-59.62
-51.19
-41.70
-32.66
-25.32
-20.43
-18.06
-17.79
-19.04
-21.17
-23.69
-26.16
-28.24
-29.67
-30.28
-30.10
-29.38
-28.53
-27.99
-28.11
-28.88
-29.91
-30.55
-30.19
-28.62
-26.33
-24.35
-23.76
-25.09
-27.85
-30.43
-30.77
-27.12
-18.85
-6.74
7.26
20.78
31.81
39.21
42.80
43.07
40.83
36.77
31.55
25.72
19.91
14.78
10.84
8.23
6.63
5.42
3.91
1.70
-1.23
-4.57
-7.90
-11.01
-14.01
-17.33
-21.43
-26.49
-32.17
-37.50
-41.09
-41.46
-37.58
-29.25
-17.31
-3.51
9.88
20.73
27.52
29.78
28.03
23.50
17.77
12.29
8.15
5.94
5.70
7.00
9.08
11.02
12.07
11.79
10.25
7.87
5.23
2.77
0.58
-1.60
-4.35
-8.19
-13.29
-19.24
-24.99
-29.03
-29.89
-26.67
-19.42
-9.17
2.29
13.05
21.53
26.86
28.90
28.07
25.12
20.91
16.37
12.33
9.42
7.87
7.42
7.42
7.10
5.85
3.53
0.41
-3.00
-6.22
-9.12
-11.82
-14.75
-18.33
-22.82
-28.11
-33.57
-38.12
-40.34
-38.95
-33.26
-23.58
-11.31
1.48
12.59
20.43
24.34
24.60
22.19
18.34
14.21
10.70
8.34
7.28
7.34
8.09
9.05
9.76
9.88
9.26
7.89
5.93
3.64
1.31
-0.89
-3.09
-5.66
-9.17
-13.99
-19.93
-26.03
-30.72
-32.31
-29.62
-22.55
-12.12
-0.23
10.97
19.71
25.00
26.80
25.74
22.79
18.99
15.18
11.96
9.62
8.24
7.68
7.65
7.80
7.73
7.12
5.76
3.59
0.69
-2.69
-6.34
-10.11
-14.05
-18.37
-23.24
-28.53
-33.61
-37.32
-38.32
-35.61
-29.04
-19.44
-8.55
1.65
9.46
13.96
15.10
13.52
10.18
6.12
2.23
-0.79
-2.40
-2.34
-0.66
2.18
5.40
8.10
9.53
9.31
7.53
4.62
1.15
-2.46
-6.09
-9.90
-14.16
-18.87
-23.53
-27.14
-28.36
-26.08
-19.82
-10.11
1.55
13.17
22.77
29.10
31.80
31.40
28.92
25.45
21.80
18.42
15.53
13.24
11.65
10.78
10.56
10.72
10.84
10.52
9.46
7.56
4.85
1.44
-2.71
-7.66
-13.44
-19.78
-25.92
-30.59
-32.33
-30.02
-23.31
-12.94
-0.62
11.54
21.64
28.50
31.86
32.19
30.32
27.13
23.30
19.37
15.79
12.99
11.35
11.05
11.96
13.61
15.28
16.26
16.01
14.35
11.43
7.52
2.91
-2.27
-7.95
-13.82
-19.17
-22.86
-23.67
-20.76
-14.12
-4.77
5.52
14.81
21.58
25.19
25.82
24.27
21.55
18.54
15.82
13.65
12.09
11.09
10.54
10.27
10.08
9.71
8.87
7.36
5.11
2.20
-1.18
-4.92
-9.04
-13.66
-18.77
-23.97
-28.37
-30.73
-29.91
-25.35
-17.40
-7.34
3.10
12.16
18.65
22.06
22.59
20.84
17.58
13.56
9.43
5.73
2.86
1.04
0.30
0.42
0.98
1.54
1.66
1.08
-0.30
-2.46
-5.39
-9.12
-13.72
-19.10
-24.78
-29.77
-32.71
-32.33
-27.96
-19.91
-9.47
1.49
11.13
18.17
22.10
23.11
21.75
18.77
14.90
10.84
7.24
4.59
3.10
2.64
2.81
3.11
3.05
2.32
0.80
-1.49
-4.46
-8.06
-12.30
-17.18
-22.56
-27.90
-32.18
-34.05
-32.32
-26.47
-17.04
-5.59
5.83
15.35
21.83
25.10
25.67
24.38
21.97
19.00
15.85
12.84
10.29
8.44
7.43
7.13
7.21
7.18
6.59
5.14
2.76
-0.47
-4.39
-8.90
-13.93
-19.33
-24.60
-28.83
-30.90
-29.78
-25.07
-17.20
-7.40
2.69
11.46
17.86
21.49
22.57
21.74
19.78
17.46
15.36
13.84
13.03
12.87
13.20
13.77
14.36
14.70
14.58
13.85
12.42
10.35
7.68
4.43
0.57
-3.99
-9.06
-14.10
-18.14
-19.98
-18.58
-13.52
-5.25
4.93
15.26
24.04
30.09
32.96
32.94
30.78
27.38
23.63
20.18
17.45
15.57
14.45
13.73
12.94
11.64
9.57
6.81
3.70
0.72
-1.75
-3.65
-5.29
-7.26
-10.16
-14.40
-19.86
-25.86
-31.24
-34.56
-34.54
-30.47
-22.58
-11.96
-0.38
10.33
18.72
24.12
26.58
26.70
25.24
22.96
20.46
18.22
16.55
15.60
15.27
15.23
14.96
13.97
11.99
9.09
5.63
2.03
-1.32
-4.31
-6.99
-9.60
-12.41
-15.71
-19.72
-24.47
-29.65
-34.44
-37.63
-37.86
-34.22
-26.67
-16.29
-4.88
5.62
13.78
19.05
21.66
22.20
21.30
19.36
16.71
13.74
11.01
9.11
8.40
8.84
9.90
10.79
10.78
9.48
6.97
3.72
0.35
-2.62
-5.01
-6.99
-9.05
-11.72
-15.41
-20.13
-25.46
-30.55
-34.25
-35.45
-33.39
-27.95
-19.74
-9.94
0.00
8.78
15.51
19.83
21.85
21.91
20.48
18.03
15.09
12.21
9.94
8.75
8.80
9.93
11.59
12.99
13.40
12.31
9.64
5.73
1.23
-3.15
-6.92
-9.90
-12.25
-14.44
-17.03
-20.57
-25.27
-30.90
-36.58
-40.92
-42.32
-39.55
-32.22
-21.06
-7.77
5.51
16.91
25.28
30.37
32.58
32.57
30.90
27.97
24.14
19.91
15.92
12.88
11.25
11.00
11.60
12.21
11.99
10.50
7.77
4.24
0.53
-2.80
-5.53
-7.67
-9.46
-11.20
-13.15
-15.54
-18.53
-22.18
-26.29
-30.28
-33.12
-33.58
-30.66
-24.03
-14.32
-3.03
7.95
16.94
22.98
25.97
26.50
25.37
23.24
20.48
17.29
13.95
10.92
8.79
8.03
8.71
10.34
12.11
13.11
12.80
11.13
8.53
5.64
2.99
0.74
-1.35
-3.70
-6.70
-10.55
-15.14
-20.17
-25.17
-29.57
-32.67
-33.70
-32.02
-27.31
-19.90
-10.74
-1.22
7.23
13.52
17.16
18.27
17.35
15.08
12.16
9.23
6.83
5.38
5.07
5.83
7.35
9.12
10.64
11.44
11.28
10.09
8.02
5.43
2.72
0.26
-1.85
-3.75
-5.86
-8.68
-12.54
-17.46
-22.96
-28.15
-31.88
-33.07
-31.01
-25.65
-17.66
-8.28
1.05
9.09
15.10
18.86
20.56
20.50
18.94
16.17
12.60
8.89
5.86
4.18
4.12
5.37
7.12
8.41
8.57
7.39
5.17
2.48
-0.17
-2.53
-4.69
-6.95
-9.71
-13.20
-17.47
-22.23
-26.87
-30.51
-32.20
-31.12
-26.96
-20.04
-11.32
-2.15
6.14
12.56
16.62
18.30
17.86
15.70
12.34
8.41
4.64
1.76
0.29
0.28
1.35
2.78
3.79
3.92
3.11
1.60
-0.26
-2.27
-4.48
-7.06
-10.25
-14.18
-18.76
-23.68
-28.31
-31.79
-33.10
-31.40
-26.29
-18.13
-8.06
2.30
11.31
17.76
21.16
21.68
19.98
16.90
13.32
9.94
7.29
5.63
4.92
4.88
5.09
5.19
4.96
4.34
3.36
2.01
0.19
-2.24
-5.42
-9.45
-14.30
-19.73
-25.11
-29.38
-31.21
-29.45
-23.75
-14.93
-4.83
4.29
10.63
13.50
13.36
11.38
8.72
6.00
3.38
0.77
-1.71
-3.65
-4.57
-4.18
-2.75
-0.93
0.46
0.82
0.03
-1.58
-3.45
-5.14
-6.55
-8.04
-10.19
-13.59
-18.36
-24.03
-29.48
-33.24
-33.88
-30.55
-23.32
-13.18
-1.82
8.94
17.60
23.32
25.98
25.97
23.94
20.60
16.66
12.72
9.33
6.85
5.44
4.95
5.02
5.19
5.04
4.26
2.75
0.56
-2.19
-5.36
-8.95
-12.98
-17.52
-22.34
-26.87
-30.10
-30.83
-28.10
-21.67
-12.23
-1.29
9.29
17.88
23.49
25.93
25.63
23.36
19.92
16.03
12.30
9.17
6.97
5.79
5.50
5.74
6.04
6.00
5.34
3.96
1.86
-0.90
-4.30
-8.37
-13.13
-18.45
-23.89
-28.60
-31.43
-31.22
-27.28
-19.70
-9.49
1.68
11.94
19.77
24.40
25.81
24.59
21.63
17.82
13.93
10.54
8.00
6.44
5.79
5.77
6.03
6.18
5.88
4.95
3.31
0.98
-2.03
-5.80
-10.45
-15.98
-22.09
-27.99
-32.48
-34.24
-32.28
-26.41
-17.37
-6.70
3.71
12.18
17.71
20.03
19.58
17.17
13.67
9.93
6.57
4.01
2.48
1.95
2.20
2.84
3.45
3.67
3.26
2.11
0.19
-2.56
-6.25
-10.97
-16.58
-22.60
-28.05
-31.63
-32.01
-28.37
-20.71
-10.05
1.86
13.01
21.75
27.17
29.24
28.60
26.25
23.15
20.06
17.46
15.57
14.42
13.90
13.83
13.93
13.84
13.25
11.87
9.62
6.52
2.70
-1.75
-6.84
-12.55
-18.67
-24.52
-29.00
-30.73
-28.64
-22.40
-12.73
-1.23
10.07
19.34
25.44
28.06
27.64
25.01
21.17
17.01
13.21
10.19
8.07
6.74
5.93
5.30
4.57
3.53
2.11
0.31
-1.81
-4.20
-6.87
-9.90
-13.42
-17.50
-21.95
-26.13
-28.98
-29.30
-26.13
-19.22
-9.30
2.08
13.03
21.83
27.48
29.80
29.32
26.93
23.57
20.00
16.77
14.19
12.38
11.25
10.57
10.03
9.26
8.04
6.31
4.12
1.67
-0.92
-3.63
-6.60
-10.05
-14.14
-18.70
-23.19
-26.64
-27.91
-26.03
-20.58
-11.98
-1.41
9.45
18.93
25.75
29.35
29.88
28.01
24.72
20.98
17.60
15.07
13.58
13.00
12.94
12.88
12.32
11.03
9.04
6.60
4.10
1.83
-0.15
-2.06
-4.30
-7.36
-11.54
-16.80
-22.53
-27.60
-30.55
-30.07
-25.50
-17.12
-6.22
5.40
15.86
23.86
28.79
30.77
30.29
27.99
24.50
20.41
16.38
13.05
10.96
10.28
10.75
11.66
12.14
11.50
9.49
6.40
2.89
-0.32
-2.80
-4.54
-6.01
-7.92
-10.93
-15.40
-21.18
-27.52
-33.19
-36.76
-37.02
-33.37
-26.14
-16.42
-5.76
4.26
12.54
18.54
22.23
23.85
23.68
22.02
19.23
15.91
12.78
10.57
9.73
10.25
11.64
13.03
13.61
12.81
10.56
7.21
3.39
-0.30
-3.44
-5.96
-8.07
-10.17
-12.72
-16.10
-20.47
-25.63
-30.91
-35.21
-37.16
-35.63
-30.08
-20.97
-9.65
2.02
12.32
20.15
25.21
27.83
28.59
27.98
26.32
23.83
20.86
17.91
15.60
14.43
14.52
15.54
16.73
17.21
16.29
13.75
9.92
5.52
1.37
-1.94
-4.29
-6.02
-7.74
-10.08
-13.47
-18.02
-23.47
-29.23
-34.34
-37.63
-37.94
-34.51
-27.32
-17.21
-5.77
5.23
14.35
20.85
24.75
26.56
26.91
26.31
25.07
23.38
21.52
19.84
18.70
18.33
18.62
19.18
19.39
18.70
16.78
13.64
9.66
5.40
1.40
-1.97
-4.63
-6.72
-8.55
-10.42
-12.63
-15.41
-18.90
-23.07
-27.57
-31.61
-34.04
-33.68
-29.72
-22.11
-11.78
-0.36
10.34
18.91
24.67
27.77
28.81
28.59
27.72
26.60
25.46
24.44
23.70
23.32
23.31
23.52
23.72
23.65
23.07
21.81
19.79
17.01
13.56
9.65
5.51
1.39
-2.55
-6.28
-9.88
-13.49
-17.26
-21.29
-25.63
-30.29
-35.13
-39.75
-43.44
-45.24
-44.18
-39.65
-31.76
-21.43
-10.15
0.39
8.84
14.52
17.44
18.11
17.23
15.44
13.26
11.09
9.31
8.19
7.90
8.40
9.41
10.54
11.33
11.44
10.68
9.06
6.72
3.92
0.92
-2.04
-4.83
-7.40
-9.85
-12.41
-15.34
-18.88
-23.04
-27.55
-31.78
-34.83
-35.71
-33.57
-27.99
-19.14
-7.88
4.36
15.86
24.90
30.22
31.24
28.17
21.98
14.18
6.54
0.76
-1.79
-0.44
4.53
11.95
19.95
26.61
30.56
31.47
29.98
27.30
24.59
22.40
20.72
19.28
17.94
16.85
16.20
15.87
15.26
13.61
10.61
6.87
3.81
2.99
5.22
10.03
15.97
21.37
25.22
27.31
27.86
26.85
23.75
17.79
8.71
-2.67
-14.53
-24.79
-32.01
-36.02
-37.71
-38.43
-39.15
-40.14
-41.03
-41.36
-40.93
-40.05
-39.27
-39.09
-39.77
-41.26
-43.41
-46.02
-48.89
-51.64
-53.59
-53.85
-51.52
-46.15
-37.94
-27.86
-17.32
-7.79
-0.34
4.52
6.77
6.84
5.34
2.98
0.53
-1.34
-2.09
-1.57
-0.01
2.04
3.83
4.80
4.67
3.61
2.03
0.38
-1.05
-2.25
-3.42
-4.88
-6.93
-9.78
-13.52
-18.08
-23.07
-27.69
-30.82
-31.25
-28.16
-21.53
-12.22
-1.72
8.27
16.47
22.18
25.33
26.25
25.37
23.15
20.06
16.75
13.88
12.09
11.68
12.50
13.97
15.34
15.91
15.38
13.85
11.78
9.66
7.80
6.18
4.43
2.03
-1.45
-6.07
-11.33
-16.25
-19.48
-19.77
-16.37
-9.30
0.51
11.57
22.24
31.20
37.80
41.96
43.98
44.29
43.27
41.29
38.79
36.26
34.16
32.70
31.65
30.44
28.34
24.81
19.71
13.35
6.23
-1.15
-8.50
-15.80
-23.17
-30.73
-38.40
-45.76
-52.03
-56.10
-56.83
-53.39
-45.75
-34.81
-22.31
-10.39
-0.93
4.88
6.73
5.09
0.91
-4.62
-10.32
-15.08
-18.05
-18.78
-17.33
-14.32
-10.64
-7.23
-4.80
-3.66
-3.78
-4.91
-6.77
-9.10
-11.84
-15.03
-18.76
-23.05
-27.63
-31.87
-34.75
-35.16
-32.24
-25.81
-16.48
-5.59
5.27
14.65
21.58
25.68
27.08
26.23
23.75
20.32
16.63
13.31
10.80
9.28
8.68
8.69
8.90
8.96
8.60
7.67
6.11
3.93
1.09
-2.48
-6.94
-12.34
-18.47
-24.61
-29.51
-31.71
-30.03
-24.04
-14.36
-2.45
9.82
20.74
29.10
34.31
36.33
35.49
32.41
27.84
22.51
17.01
11.67
6.58
1.77
-2.59
-6.18
-8.56
-9.46
-8.96
-7.55
-6.01
-5.21
-5.88
-8.43
-12.82
-18.42
-24.07
-28.24
-29.44
-26.84
-20.49
-11.48
-1.51
7.70
14.88
19.48
21.53
21.45
19.74
16.95
13.59
10.18
7.17
4.85
3.25
2.18
1.37
0.54
-0.46
-1.74
-3.38
-5.47
-8.12
-11.42
-15.31
-19.60
-23.92
-27.64
-29.97
-30.10
-27.43
-21.80
-13.66
-4.03
5.77
14.46
21.09
25.28
27.09
26.91
25.27
22.71
19.76
16.93
14.66
13.27
12.80
13.03
13.47
13.56
12.84
11.06
8.28
4.66
0.36
-4.61
-10.31
-16.74
-23.47
-29.50
-33.38
-33.65
-29.42
-20.88
-9.40
2.81
13.37
20.53
23.58
22.91
19.68
15.33
11.17
8.07
6.40
6.09
6.73
7.77
8.58
8.75
8.11
6.72
4.85
2.76
0.58
-1.76
-4.51
-7.96
-12.17
-16.80
-21.05
-23.79
-23.94
-20.82
-14.48
-5.78
3.96
13.25
20.88
26.12
28.71
28.78
26.69
23.01
18.50
14.01
10.38
8.17
7.47
7.93
8.78
9.29
8.92
7.52
5.33
2.75
0.08
-2.59
-5.53
-9.08
-13.42
-18.24
-22.64
-25.35
-25.17
-21.45
-14.41
-5.16
4.76
13.77
20.71
25.01
26.63
25.92
23.39
19.69
15.54
11.60
8.45
6.39
5.42
5.25
5.43
5.48
5.12
4.23
2.93
1.34
-0.53
-2.93
-6.31
-11.08
-17.22
-24.09
-30.36
-34.36
-34.67
-30.69
-22.90
-12.75
-2.09
7.33
14.41
18.77
20.61
20.42
18.74
16.08
12.94
9.83
7.27
5.60
4.92
5.02
5.42
5.62
5.24
4.13
2.44
0.36
-2.00
-4.76
-8.25
-12.72
-18.03
-23.41
-27.48
-28.76
-26.17
-19.59
-10.01
0.78
10.86
18.71
23.63
25.65
25.28
23.12
19.78
15.78
11.73
8.23
5.83
4.74
4.83
5.60
6.39
6.65
6.07
4.65
2.55
-0.07
-3.20
-7.01
-11.71
-17.27
-23.20
-28.44
-31.63
-31.50
-27.43
-19.76
-9.74
0.79
10.07
16.85
20.64
21.67
20.52
17.93
14.57
11.02
7.82
5.39
4.00
3.65
4.09
4.84
5.33
5.14
4.04
2.12
-0.36
-3.11
-6.03
-9.25
-13.04
-17.51
-22.36
-26.68
-29.15
-28.52
-24.12
-16.24
-6.11
4.49
13.79
20.57
24.37
25.39
24.22
21.55
17.99
14.06
10.28
7.10
4.90
3.86
3.85
4.49
5.18
5.38
4.71
3.14
0.92
-1.59
-4.10
-6.63
-9.49
-13.04
-17.35
-21.94
-25.69
-27.17
-25.20
-19.41
-10.43
0.17
10.51
18.92
24.47
26.97
26.86
24.83
21.60
17.85
14.15
11.02
8.85
7.76
7.61
7.99
8.35
8.23
7.37
5.79
3.75
1.55
-0.57
-2.64
-4.85
-7.54
-10.88
-14.70
-18.34
-20.79
-20.96
-18.16
-12.36
-4.37
4.51
12.81
19.38
23.59
25.36
24.95
22.84
19.55
15.66
11.81
8.55
6.29
5.08
4.60
4.25
3.43
1.73
-0.86
-3.98
-7.13
-9.84
-11.89
-13.41
-14.83
-16.63
-19.16
-22.41
-25.87
-28.61
-29.57
-27.87
-23.23
-16.02
-7.25
1.76
9.76
15.83
19.46
20.60
19.48
16.55
12.47
8.02
3.98
0.99
-0.71
-1.28
-1.22
-1.12
-1.42
-2.24
-3.42
-4.71
-5.94
-7.17
-8.67
-10.82
-13.87
-17.88
-22.46
-26.84
-29.94
-30.62
-28.02
-21.78
-12.36
-0.95
10.72
20.80
27.83
31.09
30.78
27.82
23.58
19.35
16.01
13.85
12.65
11.83
10.80
9.14
6.69
3.53
-0.09
-3.90
-7.70
-11.38
-14.96
-18.57
-22.40
-26.52
-30.78
-34.57
-36.89
-36.57
-32.75
-25.32
-15.18
-3.99
6.30
14.08
18.56
19.79
18.46
15.53
11.88
8.22
5.01
2.56
1.01
0.38
0.53
1.19
2.07
2.96
3.71
4.23
4.43
4.14
3.12
1.09
-2.10
-6.27
-10.80
-14.68
-16.76
-16.10
-12.39
-6.04
1.87
9.89
16.66
21.19
23.06
22.38
19.72
15.85
11.59
7.61
4.37
2.04
0.54
-0.36
-0.94
-1.41
-1.93
-2.58
-3.47
-4.74
-6.58
-9.16
-12.57
-16.79
-21.59
-26.47
-30.63
-33.09
-32.89
-29.42
-22.70
-13.52
-3.22
6.62
14.63
19.98
22.38
22.11
19.80
16.31
12.55
9.31
7.08
5.93
5.57
5.47
5.17
4.46
3.35
2.02
0.56
-1.07
-3.07
-5.66
-8.96
-12.91
-17.16
-21.15
-24.03
-24.90
-22.98
-17.97
-10.29
-1.00
8.42
16.50
22.21
25.12
25.37
23.49
20.17
16.14
12.10
8.67
6.31
5.22
5.31
6.17
7.24
7.97
7.94
6.99
5.14
2.53
-0.73
-4.62
-9.14
-14.26
-19.56
-24.29
-27.31
-27.46
-23.97
-16.80
-6.76
4.75
16.11
25.96
33.42
38.02
39.62
38.21
34.02
27.58
19.83
12.02
5.39
0.81
-1.49
-1.99
-1.52
-0.96
-0.88
-1.46
-2.62
-4.26
-6.51
-9.68
-14.03
-19.51
-25.48
-30.76
-33.91
-33.72
-29.70
-22.24
-12.53
-2.17
7.30
14.74
19.57
21.71
21.43
19.22
15.74
11.74
8.01
5.25
3.82
3.67
4.34
5.15
5.51
5.08
3.91
2.22
0.26
-1.91
-4.47
-7.75
-11.97
-17.06
-22.55
-27.52
-30.83
-31.47
-28.81
-22.95
-14.72
-5.51
3.13
9.87
13.95
15.30
14.40
12.07
9.19
6.48
4.42
3.21
2.83
3.13
3.93
4.99
6.05
6.81
6.99
6.34
4.75
2.20
-1.26
-5.57
-10.65
-16.28
-21.87
-26.46
-28.83
-27.85
-23.04
-14.82
-4.52
6.00
14.97
21.20
24.32
24.68
23.01
20.10
16.56
12.86
9.41
6.56
4.63
3.74
3.74
4.15
4.42
4.06
2.85
0.87
-1.65
-4.54
-7.83
-11.75
-16.45
-21.76
-26.94
-30.78
-31.93
-29.39
-23.00
-13.50
-2.38
8.61
17.98
24.76
28.63
29.68
28.30
25.01
20.53
15.71
11.47
8.54
7.21
7.19
7.82
8.27
7.94
6.70
4.79
2.63
0.52
-1.48
-3.62
-6.28
-9.75
-14.08
-18.86
-23.31
-26.34
-26.86
-24.16
-18.17
-9.66
0.03
9.27
16.72
21.58
23.71
23.46
21.45
18.34
14.74
11.20
8.24
6.25
5.37
5.46
6.05
6.57
6.52
5.66
4.03
1.87
-0.53
-3.02
-5.63
-8.54
-11.96
-15.97
-20.31
-24.35
-27.09
-27.49
-24.76
-18.82
-10.32
-0.59
8.76
16.35
21.30
23.37
22.86
20.43
16.87
12.99
9.51
6.93
5.50
5.13
5.44
5.93
6.09
5.64
4.52
2.85
0.87
-1.26
-3.51
-6.02
-9.05
-12.80
-17.19
-21.74
-25.55
-27.51
-26.61
-22.39
-15.11
-5.71
4.33
13.49
20.54
24.80
26.17
25.08
22.29
18.68
15.08
12.15
10.29
9.62
10.01
11.06
12.25
13.01
12.86
11.49
8.90
5.36
1.25
-3.08
-7.48
-11.99
-16.81
-21.92
-26.95
-31.12
-33.35
-32.69
-28.70
-21.70
-12.70
-3.17
5.46
12.12
16.28
17.94
17.48
15.46
12.53
9.30
6.34
4.06
2.64
2.09
2.17
2.60
3.05
3.26
3.08
2.42
1.31
-0.25
-2.26
-4.81
-8.09
-12.23
-17.12
-22.26
-26.69
-29.21
-28.73
-24.74
-17.54
-8.28
1.44
9.96
16.11
19.35
19.81
18.10
15.01
11.35
7.77
4.74
2.52
1.20
0.67
0.74
1.15
1.63
1.92
1.79
1.09
-0.30
-2.49
-5.50
-9.34
-13.89
-18.78
-23.39
-26.79
-27.99
-26.19
-21.16
-13.33
-3.81
5.96
14.57
21.10
25.32
27.62
28.80
29.54
30.15
30.39
29.64
27.27
23.05
17.36
11.05
5.15
0.40
-2.99
-5.30
-7.01
-8.57
-10.25
-12.20
-14.64
-17.84
-21.94
-26.72
-31.28
-34.28
-34.32
-30.51
-22.98
-12.91
-2.17
7.29
14.09
17.68
18.35
16.95
14.47
11.81
9.53
7.93
7.02
6.71
6.78
7.04
7.20
7.01
6.23
4.77
2.70
0.26
-2.26
-4.72
-7.21
-10.05
-13.48
-17.46
-21.40
-24.27
-24.95
-22.61
-17.18
-9.35
-0.43
8.10
14.94
19.34
21.11
20.58
18.40
15.34
12.12
9.28
7.15
5.79
5.12
4.93
4.98
5.01
4.78
4.14
3.01
1.48
-0.30
-2.19
-4.22
-6.60
-9.63
-13.47
-17.81
-21.80
-24.22
-23.80
-19.82
-12.39
-2.58
7.97
17.53
24.79
29.12
30.55
29.57
26.81
22.94
18.59
14.34
10.75
8.18
6.79
6.40
6.59
6.85
6.73
5.99
4.65
2.84
0.71
-1.73
-4.62
-8.17
-12.54
-17.58
-22.72
-27.00
-29.24
-28.44
-24.19
-16.84
-7.46
2.44
11.38
18.29
22.64
24.48
24.16
22.23
19.28
15.88
12.60
9.95
8.28
7.66
7.83
8.30
8.50
8.03
6.76
4.84
2.58
0.25
-2.07
-4.55
-7.53
-11.28
-15.79
-20.62
-24.88
-27.49
-27.53
-24.52
-18.66
-10.80
-2.19
5.90
12.42
16.75
18.71
18.47
16.47
13.31
9.72
6.40
3.87
2.40
1.90
2.06
2.41
2.58
2.31
1.52
0.23
-1.49
-3.62
-6.12
-9.08
-12.56
-16.56
-20.89
-25.02
-28.13
-29.22
-27.48
-22.58
-14.95
-5.67
3.74
11.79
17.43
20.24
20.41
18.56
15.48
11.98
8.74
6.25
4.81
4.40
4.74
5.36
5.73
5.48
4.41
2.60
0.29
-2.32
-5.08
-8.09
-11.55
-15.70
-20.52
-25.54
-29.88
-32.34
-31.89
-28.01
-21.02
-11.96
-2.31
6.43
13.20
17.46
19.25
18.93
17.07
14.34
11.43
8.94
7.34
6.78
7.07
7.77
8.34
8.40
7.80
6.68
5.28
3.75
2.08
0.08
-2.51
-5.88
-10.01
-14.63
-19.19
-22.93
-24.95
-24.43
-20.89
-14.45
-5.93
3.33
11.79
18.18
21.80
22.67
21.34
18.66
15.53
12.69
10.64
9.61
9.52
10.10
10.91
11.50
11.52
10.78
9.28
7.14
4.50
1.48
-1.86
-5.55
-9.67
-14.21
-19.08
-23.83
-27.74
-29.83
-29.17
-25.19
-18.05
-8.67
1.47
10.79
18.08
22.74
24.84
24.83
23.33
20.88
17.94
14.93
12.26
10.29
9.23
9.02
9.36
9.78
9.84
9.27
8.07
6.41
4.59
2.78
0.94
-1.21
-4.12
-8.14
-13.25
-18.83
-23.73
-26.59
-26.29
-22.42
-15.41
-6.45
2.95
11.37
17.86
21.98
23.73
23.41
21.40
18.21
14.42
10.67
7.52
5.35
4.25
3.97
4.06
4.02
3.52
2.48
1.12
-0.17
-1.02
-1.29
-1.17
-1.19
-2.04
-4.26
-7.94
-12.56
-17.02
-19.99
-20.34
-17.58
-12.11
-5.06
2.06
7.85
11.37
12.31
10.89
7.67
3.37
-1.27
-5.51
-8.67
-10.28
-10.17
-8.57
-6.11
-3.51
-1.49
-0.46
-0.49
-1.39
-2.85
-4.63
-6.67
-9.17
-12.36
-16.37
-20.92
-25.23
-28.14
-28.47
-25.43
-19.05
-10.24
-0.50
8.56
15.71
20.32
22.39
22.25
20.37
17.27
13.48
9.63
6.31
4.02
2.92
2.76
3.01
3.11
2.70
1.74
0.44
-0.99
-2.50
-4.35
-6.97
-10.73
-15.67
-21.31
-26.64
-30.39
-31.34
-28.77
-22.73
-14.07
-4.19
5.36
13.28
18.81
21.76
22.41
21.33
19.20
16.70
14.42
12.81
12.03
12.02
12.55
13.33
14.14
14.82
15.26
15.32
14.82
13.51
11.14
7.49
2.49
-3.70
-10.57
-17.13
-22.10
-24.10
-22.17
-16.16
-6.92
3.78
13.80
21.17
24.54
23.52
18.51
10.58
1.08
-8.52
-16.93
-23.10
-26.42
-26.80
-24.67
-20.85
-16.35
-12.10
-8.73
-6.46
-5.21
-4.83
-5.30
-6.85
-9.73
-13.96
-19.01
-23.76
-26.69
-26.46
-22.37
-14.71
-4.66
6.13
16.08
24.03
29.42
32.19
32.57
30.98
27.95
24.16
20.31
17.05
14.73
13.34
12.55
11.81
10.64
8.76
6.20
3.19
-0.00
-3.26
-6.69
-10.55
-15.06
-20.09
-25.08
-28.99
-30.70
-29.33
-24.68
-17.35
-8.58
0.12
7.39
12.45
15.12
15.74
14.94
13.34
11.42
9.52
7.84
6.52
5.62
5.19
5.11
5.19
5.10
4.54
3.33
1.46
-0.90
-3.58
-6.55
-9.93
-13.92
-18.45
-22.94
-26.31
-27.22
-24.66
-18.41
-9.25
1.20
11.13
19.03
24.16
26.54
26.67
25.23
22.86
20.04
17.20
14.67
12.70
11.40
10.66
10.22
9.71
8.80
7.29
5.18
2.64
-0.12
-2.92
-5.86
-9.22
-13.41
-18.53
-24.16
-29.19
-32.16
-31.74
-27.33
-19.41
-9.40
0.85
9.71
16.19
20.09
21.75
21.71
20.48
18.45
15.98
13.43
11.15
9.40
8.25
7.55
7.01
6.35
5.41
4.19
2.76
1.17
-0.66
-2.98
-6.10
-10.28
-15.44
-21.10
-26.29
-29.80
-30.48
-27.64
-21.38
-12.57
-2.66
6.70
14.16
18.92
20.84
20.31
18.03
14.84
11.46
8.44
6.14
4.72
4.13
4.20
4.64
5.14
5.38
5.14
4.26
2.71
0.48
-2.44
-6.10
-10.59
-15.86
-21.52
-26.73
-30.29
-30.97
-27.98
-21.38
-12.13
-1.87
7.64
15.03
19.64
21.51
21.19
19.35
16.64
13.58
10.60
8.00
6.02
4.71
3.94
3.45
2.92
2.13
1.01
-0.36
-1.93
-3.69
-5.85
-8.72
-12.53
-17.24
-22.31
-26.70
-29.18
-28.63
-24.56
-17.31
-8.00
1.78
10.48
16.90
20.48
21.21
19.49
16.02
11.63
7.15
3.38
0.81
-0.34
-0.26
0.62
1.76
2.73
3.22
3.14
2.51
1.41
-0.15
-2.28
-5.18
-9.08
-13.93
-19.28
-24.18
-27.34
-27.53
-24.05
-17.12
-7.84
2.06
10.82
17.14
20.42
20.83
18.95
15.63
11.63
7.63
4.19
1.67
0.23
-0.22
-0.05
0.27
0.29
-0.21
-1.21
-2.49
-3.85
-5.30
-7.10
-9.65
-13.21
-17.63
-22.15
-25.49
-26.23
-23.30
-16.40
-6.23
5.65
17.26
26.73
32.77
34.86
33.24
28.59
21.83
13.95
5.99
-1.01
-6.06
-8.43
-7.86
-4.76
-0.05
5.02
9.23
11.74
12.12
10.34
6.62
1.29
-5.20
-12.16
-18.59
-23.27
-24.94
-22.77
-16.67
-7.52
2.98
12.80
20.12
23.90
24.05
21.33
16.89
11.88
7.13
3.11
-0.03
-2.25
-3.64
-4.35
-4.58
-4.57
-4.50
-4.53
-4.79
-5.45
-6.73
-8.85
-11.92
-15.76
-19.82
-23.20
-24.88
-24.00
-20.22
-13.82
-5.67
3.03
11.09
17.70
22.50
25.50
26.99
27.25
26.57
25.23
23.58
22.11
21.43
22.15
24.80
29.62
36.36
44.19
51.75
57.54
60.37
59.86
56.41
50.91
44.16
36.43
27.46
16.92
4.94
-7.51
-18.79
-27.20
-31.64
-32.09
-29.59
-25.73
-22.07
-19.56
-18.29
-17.69
-16.85
-15.07
-12.27
-9.03
-6.33
-5.07
-5.60
-7.64
-10.53
-13.71
-16.93
-20.21
-23.49
-26.33
-28.00
-28.02
-26.67
-25.15
-24.95
-26.83
-30.08
-32.64
-32.11
-27.17
-18.40
-8.14
0.69
6.08
7.74
7.02
5.81
5.42
5.89
6.20
5.15
2.15
-2.45
-7.61
-12.36
-16.25
-19.53
-22.78
-26.44
-30.48
-34.39
-37.46
-39.08
-38.90
-36.87
-33.08
-27.89
-21.79
-15.50
-9.73
-4.87
-0.76
3.49
9.34
18.29
31.25
47.79
65.79
81.58
90.88
90.14
77.91
55.50
26.66
-3.78
-31.44
-53.43
-68.61
-77.08
-79.53
-76.80
-69.88
-60.01
-48.64
-37.14
-26.39
-16.52
-7.06
2.47
12.07
20.94
27.64
30.76
29.78
25.64
20.63
17.61
18.68
24.01
31.48
37.63
39.21
34.83
25.48
13.80
2.58
-6.72
-14.29
-21.33
-28.77
-36.27
-42.33
-45.10
-43.55
-38.06
-30.15
-21.59
-13.47
-5.81
2.09
10.88
20.50
29.89
37.33
41.07
40.02
34.06
24.07
11.63
-1.23
-12.52
-20.59
-24.50
-24.33
-21.02
-16.19
-11.54
-8.32
-7.12
-7.86
-10.14
-13.58
-18.06
-23.67
-30.39
-37.83
-45.00
-50.46
-52.68
-50.63
-44.13
-34.10
-22.22
-10.43
-0.31
7.25
12.22
15.02
16.24
16.31
15.46
13.92
12.03
10.30
9.27
9.24
10.16
11.59
12.96
13.76
13.78
13.07
11.86
10.30
8.40
5.93
2.58
-1.76
-6.84
-11.90
-15.81
-17.31
-15.50
-10.19
-2.04
7.56
16.91
24.46
29.22
30.95
30.03
27.24
23.51
19.69
16.43
14.16
13.02
12.85
13.26
13.68
13.62
12.77
11.17
9.15
7.14
5.47
4.20
3.02
1.41
-1.20
-5.05
-9.94
-15.07
-19.27
-21.27
-20.15
-15.63
-8.23
0.85
10.12
18.19
24.11
27.41
28.17
26.73
23.70
19.79
15.73
12.24
9.83
8.75
8.88
9.86
11.18
12.40
13.15
13.17
12.29
10.30
7.05
2.46
-3.43
-10.34
-17.75
-24.80
-30.42
-33.47
-33.06
-28.79
-20.91
-10.35
1.41
12.70
22.00
28.14
30.59
29.50
25.60
20.09
14.30
9.39
6.07
4.52
4.39
5.10
6.03
6.67
6.71
5.97
4.40
2.03
-1.08
-4.81
-9.09
-13.84
-18.94
-24.13
-28.82
-32.17
-33.18
-31.07
-25.64
-17.41
-7.57
2.35
10.95
17.21
20.75
21.66
20.43
17.75
14.37
10.98
8.10
5.98
4.60
3.72
2.97
2.09
0.90
-0.63
-2.43
-4.45
-6.67
-9.07
-11.70
-14.64
-18.00
-21.76
-25.66
-29.06
-31.02
-30.53
-26.85
-19.88
-10.32
0.53
11.09
20.00
26.35
29.87
30.81
29.78
27.60
25.04
22.73
20.95
19.72
18.72
17.55
15.84
13.42
10.35
6.93
3.52
0.48
-1.99
-3.92
-5.59
-7.46
-10.07
-13.76
-18.41
-23.27
-27.11
-28.53
-26.46
-20.62
-11.71
-1.18
9.19
17.80
23.63
26.39
26.35
24.15
20.61
16.59
12.89
10.21
8.99
9.32
10.89
13.07
15.12
16.34
16.29
14.75
11.77
7.62
2.70
-2.52
-7.64
-12.41
-16.69
-20.35
-23.07
-24.33
-23.49
-20.08
-14.14
-6.32
2.21
10.07
16.14
19.79
20.95
20.02
17.62
14.38
10.86
7.54
4.74
2.70
1.47
0.94
0.85
0.85
0.58
-0.15
-1.37
-2.96
-4.70
-6.50
-8.43
-10.78
-13.77
-17.39
-21.17
-24.18
-25.33
-23.68
-18.90
-11.43
-2.38
6.77
14.61
20.16
22.99
23.20
21.30
17.94
13.81
9.56
5.75
2.83
0.99
0.20
0.17
0.47
0.65
0.43
-0.33
-1.59
-3.29
-5.43
-8.09
-11.45
-15.63
-20.48
-25.43
-29.44
-31.26
-29.83
-24.74
-16.48
-6.37
3.82
12.45
18.45
21.51
21.91
20.32
17.44
13.89
10.16
6.70
3.90
2.07
1.37
1.67
2.53
3.33
3.46
2.51
0.45
-2.48
-6.00
-10.02
-14.64
-19.99
-25.85
-31.40
-35.34
-36.19
-32.98
-25.71
-15.42
-3.92
6.82
15.27
20.66
23.00
22.83
20.87
17.84
14.34
10.91
7.99
5.92
4.83
4.61
4.87
5.10
4.88
3.94
2.26
-0.02
-2.77
-5.95
-9.69
-14.13
-19.27
-24.73
-29.61
-32.71
-32.82
-29.20
-21.93
-11.98
-1.00
9.18
17.10
21.96
23.72
22.92
20.39
16.97
13.41
10.27
7.93
6.57
6.15
6.42
6.96
7.31
7.14
6.29
4.79
2.76
0.27
-2.69
-6.29
-10.74
-16.05
-21.87
-27.32
-31.11
-31.91
-28.86
-21.90
-11.98
-0.78
9.83
18.33
23.91
26.54
26.65
24.91
22.02
18.60
15.25
12.57
10.93
10.45
10.84
11.56
11.95
11.55
10.17
7.98
5.29
2.43
-0.46
-3.49
-6.95
-11.16
-16.22
-21.77
-26.90
-30.32
-30.70
-27.26
-20.05
-10.12
0.84
11.03
19.06
24.24
26.55
26.42
24.50
21.48
18.03
14.85
12.44
11.09
10.72
10.91
11.08
10.76
9.68
7.93
5.74
3.41
1.14
-1.03
-3.26
-5.88
-9.28
-13.78
-19.32
-25.27
-30.44
-33.31
-32.57
-27.64
-18.99
-8.05
3.29
13.22
20.54
24.80
26.13
25.03
22.15
18.20
13.98
10.27
7.72
6.65
6.88
7.82
8.65
8.71
7.63
5.49
2.68
-0.32
-3.16
-5.78
-8.33
-11.18
-14.69
-19.03
-23.99
-28.91
-32.68
-34.09
-32.16
-26.56
-17.82
-7.17
3.72
13.30
20.50
24.87
26.50
25.85
23.49
20.13
16.45
13.14
10.78
9.63
9.60
10.25
10.96
11.14
10.42
8.74
6.33
3.57
0.77
-1.94
-4.71
-7.94
-12.05
-17.22
-23.11
-28.73
-32.72
-33.65
-30.64
-23.72
-13.90
-2.86
7.63
16.14
21.92
24.90
25.50
24.35
22.15
19.56
17.17
15.46
14.67
14.74
15.28
15.70
15.42
14.03
11.53
8.23
4.67
1.34
-1.52
-4.03
-6.64
-9.93
-14.37
-20.05
-26.52
-32.79
-37.48
-39.20
-36.91
-30.34
-20.17
-7.88
4.65
15.64
23.87
28.80
30.59
29.78
27.12
23.39
19.36
15.74
13.09
11.71
11.52
12.05
12.59
12.45
11.22
8.89
5.88
2.76
0.04
-2.07
-3.71
-5.37
-7.63
-10.98
-15.51
-20.80
-25.93
-29.65
-30.74
-28.42
-22.65
-14.19
-4.36
5.35
13.69
19.88
23.64
25.04
24.39
22.15
18.89
15.35
12.35
10.54
10.27
11.35
13.15
14.71
15.17
14.00
11.20
7.29
3.06
-0.74
-3.72
-5.94
-7.90
-10.27
-13.65
-18.26
-23.79
-29.36
-33.66
-35.37
-33.49
-27.73
-18.66
-7.59
3.80
13.89
21.47
25.98
27.38
26.10
22.86
18.48
13.90
10.00
7.48
6.63
7.22
8.60
9.92
10.42
9.69
7.76
5.00
1.86
-1.32
-4.36
-7.27
-10.23
-13.53
-17.49
-22.26
-27.65
-32.89
-36.71
-37.70
-34.86
-28.08
-18.29
-7.24
3.15
11.35
16.60
18.89
18.70
16.71
13.63
10.17
7.06
4.98
4.36
5.19
7.00
9.03
10.55
11.12
10.70
9.53
7.88
5.84
3.32
0.11
-4.01
-9.13
-15.21
-21.91
-28.57
-34.11
-37.24
-36.74
-31.98
-23.24
-11.75
0.61
11.88
20.57
25.90
27.87
26.97
24.01
19.85
15.32
11.20
8.07
6.21
5.58
5.78
6.26
6.45
5.96
4.69
2.72
0.25
-2.51
-5.50
-8.80
-12.61
-17.14
-22.37
-27.92
-32.93
-36.15
-36.35
-32.74
-25.32
-15.07
-3.63
7.17
15.82
21.48
24.02
23.85
21.69
18.36
14.68
11.38
9.02
7.84
7.71
8.21
8.76
8.87
8.28
7.00
5.22
3.11
0.72
-2.00
-5.17
-8.89
-13.16
-17.78
-22.23
-25.69
-27.19
-25.84
-21.20
-13.49
-3.64
6.97
16.84
24.77
30.07
32.64
32.87
31.43
29.12
26.68
24.60
23.09
21.99
20.93
19.46
17.24
14.16
10.30
5.95
1.49
-2.76
-6.55
-9.84
-12.78
-15.68
-18.87
-22.41
-25.96
-28.70
-29.57
-27.63
-22.43
-14.31
-4.37
5.80
14.57
20.73
23.81
24.08
22.35
19.64
16.81
14.45
12.73
11.54
10.68
9.86
8.87
7.60
5.98
4.03
1.86
-0.40
-2.66
-4.95
-7.44
-10.44
-14.16
-18.51
-22.95
-26.52
-28.10
-26.78
-22.23
-14.84
-5.70
3.77
12.15
18.38
21.85
22.51
20.67
16.95
12.09
6.83
1.79
-2.67
-6.41
-9.44
-11.85
-13.66
-14.85
-15.45
-15.56
-15.48
-15.63
-16.45
-18.29
-21.23
-25.03
-29.05
-32.36
-33.81
-32.44
-27.76
-20.02
-10.28
-0.08
8.92
15.51
19.18
20.15
19.11
16.82
13.96
10.96
8.07
5.49
3.40
1.94
1.15
0.96
1.11
1.28
1.07
0.07
-2.09
-5.73
-11.00
-17.70
-25.17
-32.25
-37.43
-39.33
-37.06
-30.61
-20.91
-9.60
1.47
10.76
17.33
20.95
21.95
20.93
18.58
15.53
12.30
9.34
7.02
5.53
4.86
4.79
4.92
4.81
4.07
2.51
0.05
-3.29
-7.55
-12.70
-18.52
-24.42
-29.41
-32.22
-31.73
-27.39
-19.53
-9.31
1.64
11.65
19.51
24.69
27.20
27.46
26.05
23.54
20.46
17.30
14.45
12.20
10.60
9.53
8.71
7.84
6.70
5.15
3.14
0.59
-2.65
-6.81
-12.04
-18.24
-24.81
-30.64
-34.35
-34.65
-30.92
-23.41
-13.26
-2.16
8.23
16.65
22.49
25.72
26.67
25.84
23.82
21.20
18.57
16.39
14.94
14.18
13.85
13.52
12.79
11.41
9.32
6.68
3.73
0.68
-2.39
-5.57
-9.16
-13.52
-18.79
-24.77
-30.65
-35.17
-36.96
-34.99
-29.06
-19.92
-9.09
1.68
10.98
18.07
22.89
25.81
27.22
27.38
26.43
24.54
22.10
19.63
17.71
16.67
16.46
16.69
16.74
16.03
14.24
11.41
7.90
4.23
0.86
-1.94
-4.23
-6.31
-8.63
-11.64
-15.64
-20.63
-26.27
-31.76
-35.99
-37.71
-35.95
-30.37
-21.49
-10.59
0.68
10.79
18.73
24.19
27.36
28.70
28.71
27.76
26.16
24.21
22.24
20.53
19.27
18.48
17.98
17.51
16.79
15.62
13.90
11.66
9.02
6.13
3.14
0.13
-2.88
-5.96
-9.21
-12.82
-16.94
-21.63
-26.77
-31.88
-36.17
-38.60
-38.18
-34.35
-27.19
-17.59
-6.94
3.29
11.91
18.32
22.46
24.58
25.03
24.10
22.05
19.28
16.33
13.82
12.25
11.77
12.12
12.73
12.98
12.40
10.86
8.55
5.81
3.04
0.51
-1.71
-3.75
-5.92
-8.58
-12.08
-16.57
-21.94
-27.64
-32.81
-36.38
-37.36
-35.12
-29.61
-21.47
-11.85
-2.09
6.58
13.35
17.91
20.30
20.85
19.92
17.92
15.30
12.58
10.32
8.98
8.76
9.48
10.61
11.44
11.33
9.98
7.52
4.39
1.16
-1.73
-4.14
-6.23
-8.33
-10.84
-14.11
-18.27
-23.23
-28.45
-33.01
-35.74
-35.54
-31.79
-24.66
-15.10
-4.57
5.44
13.80
19.94
23.74
25.34
24.98
22.95
19.74
16.07
12.83
10.85
10.52
11.71
13.67
15.37
15.88
14.72
12.04
8.41
4.59
1.12
-1.78
-4.31
-6.83
-9.70
-13.18
-17.31
-21.95
-26.71
-30.98
-33.92
-34.67
-32.56
-27.45
-19.81
-10.63
-1.18
7.41
14.33
19.26
22.17
23.28
22.86
21.21
18.74
15.94
13.37
11.49
10.55
10.42
10.66
10.62
9.79
7.99
5.44
2.62
0.00
-2.18
-4.07
-6.07
-8.66
-12.13
-16.50
-21.44
-26.27
-30.12
-31.99
-31.08
-26.98
-19.94
-10.86
-1.07
8.00
15.25
20.13
22.59
22.94
21.61
19.10
15.93
12.67
9.98
8.36
8.07
8.92
10.36
11.66
12.15
11.49
9.71
7.12
4.14
1.08
-2.00
-5.21
-8.77
-12.85
-17.45
-22.32
-26.94
-30.58
-32.41
-31.72
-28.11
-21.69
-13.10
-3.40
6.19
14.58
21.01
25.18
27.05
26.90
25.09
22.21
18.89
15.81
13.45
12.00
11.27
10.82
10.14
8.91
7.08
4.81
2.39
0.02
-2.25
-4.51
-7.01
-10.02
-13.78
-18.39
-23.68
-29.09
-33.67
-36.28
-35.90
-32.01
-24.85
-15.41
-5.20
4.22
11.57
16.21
18.11
17.72
15.74
12.91
9.91
7.33
5.54
4.76
4.89
5.64
6.54
7.10
6.93
5.87
3.96
1.45
-1.35
-4.14
-6.77
-9.30
-12.00
-15.24
-19.20
-23.64
-27.79
-30.51
-30.62
-27.43
-21.01
-12.29
-2.71
6.19
13.24
17.84
19.98
20.03
18.52
15.99
12.96
9.90
7.25
5.33
4.28
4.00
4.15
4.32
4.13
3.35
2.01
0.18
-2.05
-4.72
-8.02
-12.17
-17.27
-23.07
-28.97
-33.99
-37.01
-37.05
-33.63
-26.94
-17.88
-7.83
1.71
9.44
14.61
17.04
17.04
15.21
12.28
8.94
5.81
3.40
2.00
1.68
2.22
3.15
4.00
4.40
4.24
3.65
2.82
1.86
0.68
-1.06
-3.72
-7.51
-12.27
-17.36
-21.76
-24.29
-24.00
-20.48
-14.05
-5.71
3.17
11.19
17.39
21.29
22.97
22.81
21.34
19.09
16.58
14.24
12.39
11.14
10.37
9.82
9.17
8.18
6.78
5.06
3.12
1.05
-1.19
-3.74
-6.76
-10.45
-14.82
-19.64
-24.34
-28.03
-29.71
-28.54
-24.16
-16.94
-7.84
1.75
10.44
17.14
21.27
22.80
22.11
19.87
16.83
13.71
11.04
9.08
7.84
7.14
6.71
6.33
5.89
5.30
4.49
3.35
1.75
-0.46
-3.35
-6.93
-11.12
-15.70
-20.22
-24.00
-26.20
-25.99
-22.85
-16.83
-8.65
0.49
9.14
16.05
20.45
22.16
21.58
19.47
16.71
14.16
12.48
12.09
13.07
15.05
17.21
18.52
17.96
15.05
10.00
3.72
-2.58
-7.94
-12.06
-15.31
-18.40
-21.86
-25.53
-28.61
-29.95
-28.59
-24.20
-17.25
-8.79
-0.14
7.55
13.48
17.27
18.85
18.40
16.29
13.06
9.40
6.04
3.55
2.24
2.04
2.62
3.48
4.11
4.17
3.46
1.97
-0.18
-2.86
-5.96
-9.47
-13.41
-17.65
-21.77
-25.05
-26.53
-25.39
-21.28
-14.51
-6.06
2.72
10.48
16.22
19.44
20.14
18.73
15.86
12.29
8.74
5.80
3.78
2.69
2.28
2.21
2.13
1.83
1.21
0.27
-1.04
-2.78
-5.07
-8.05
-11.76
-16.15
-20.85
-25.22
-28.35
-29.31
-27.40
-22.48
-15.07
-6.28
2.52
10.07
15.50
18.46
19.08
17.78
15.19
12.00
8.86
6.32
4.65
3.81
3.53
3.45
3.23
2.70
1.85
0.69
-0.81
-2.76
-5.31
-8.61
-12.66
-17.22
-21.71
-25.27
-26.93
-25.85
-21.73
-14.91
-6.38
2.51
10.44
16.48
20.22
21.64
21.06
18.85
15.51
11.61
7.81
4.74
2.77
1.91
1.80
1.88
1.67
0.94
-0.27
-1.78
-3.45
-5.34
-7.72
-10.87
-14.89
-19.44
-23.77
-26.78
-27.44
-25.04
-19.58
-11.75
-2.80
5.86
13.02
17.97
20.53
20.98
19.79
17.54
14.76
11.92
9.46
7.66
6.61
6.19
6.10
5.94
5.39
4.26
2.53
0.34
-2.16
-4.87
-7.82
-11.17
-15.02
-19.24
-23.29
-26.21
-26.93
-24.67
-19.33
-11.61
-2.82
5.59
12.45
17.15
19.58
20.03
18.94
16.82
14.21
11.70
9.81
8.89
8.93
9.58
10.30
10.55
10.01
8.70
6.88
4.90
2.96
1.03
-1.20
-4.12
-8.00
-12.80
-17.98
-22.58
-25.51
-25.81
-23.01
-17.29
-9.46
-0.71
7.69
14.70
19.68
22.36
22.85
21.51
18.89
15.69
12.68
10.47
9.36
9.27
9.75
10.26
10.30
9.70
8.51
6.97
5.30
3.65
2.02
0.28
-1.78
-4.42
-7.80
-11.93
-16.46
-20.59
-23.26
-23.38
-20.29
-14.03
-5.48
3.95
12.75
19.69
24.18
26.23
26.25
24.84
22.55
19.88
17.26
15.13
13.88
13.69
14.48
15.83
17.09
17.65
17.08
15.31
12.62
9.48
6.39
3.69
1.40
-0.74
-3.22
-6.54
-10.96
-16.25
-21.71
-26.27
-28.87
-28.81
-25.99
-20.90
-14.44
-7.64
-1.39
3.65
7.05
8.63
8.41
6.66
3.93
0.95
-1.54
-2.97
-3.13
-2.21
-0.70
0.77
1.69
1.80
1.08
-0.26
-1.99
-3.97
-6.23
-8.97
-12.42
-16.62
-21.31
-25.78
-29.02
-29.99
-27.93
-22.72
-14.96
-5.81
3.29
11.10
16.77
20.02
20.93
19.93
17.55
14.48
11.42
9.03
7.73
7.56
8.19
9.00
9.42
9.07
7.92
6.16
4.08
1.85
-0.55
-3.30
-6.62
-10.61
-15.15
-19.77
-23.69
-25.97
-25.73
-22.47
-16.26
-7.87
1.48
10.38
17.59
22.31
24.25
23.64
21.06
17.36
13.44
10.11
7.91
7.02
7.24
8.09
8.96
9.32
8.85
7.51
5.47
2.99
0.27
-2.67
-6.05
-10.14
-15.04
-20.40
-25.37
-28.71
-29.20
-26.14
-19.66
-10.75
-0.93
8.22
15.58
20.58
23.21
23.75
22.58
20.16
16.99
13.69
10.89
9.08
8.39
8.62
9.28
9.82
9.86
9.22
7.94
6.14
3.88
1.16
-2.10
-5.96
-10.37
-15.01
-19.30
-22.40
-23.41
-21.63
-16.90
-9.68
-1.01
7.78
15.41
20.99
24.10
24.78
23.37
20.43
16.63
12.73
9.43
7.22
6.26
6.37
7.05
7.75
8.04
7.71
6.80
5.42
3.71
1.70
-0.70
-3.67
-7.35
-11.69
-16.32
-20.45
-23.03
-23.03
-19.86
-13.64
-5.24
3.96
12.49
19.18
23.38
24.94
24.14
21.47
17.63
13.45
9.74
7.20
6.16
6.53
7.86
9.50
10.85
11.54
11.46
10.67
9.30
7.44
5.08
2.09
-1.63
-6.01
-10.66
-14.82
-17.48
-17.67
-14.82
-9.05
-1.16
7.56
15.67
21.97
25.73
26.75
25.27
21.86
17.26
12.28
7.67
3.96
1.38
-0.16
-1.04
-1.71
-2.48
-3.39
-4.19
-4.49
-4.09
-3.16
-2.30
-2.43
-4.37
-8.49
-14.42
-21.08
-26.93
-30.42
-30.45
-26.71
-19.73
-10.80
-1.53
6.51
12.21
15.08
15.28
13.37
10.06
6.02
1.79
-2.12
-5.26
-7.16
-7.59
-6.62
-4.82
-3.05
-2.16
-2.74
-4.87
-8.26
-12.42
-16.91
-21.44
-25.67
-29.12
-31.01
-30.49
-26.95
-20.40
-11.57
-1.80
7.39
14.63
19.07
20.43
18.99
15.47
10.88
6.32
2.71
0.61
0.10
0.81
2.17
3.60
4.72
5.36
5.40
4.76
3.26
0.70
-3.04
-7.80
-13.09
-18.05
-21.61
-22.76
-20.88
-16.03
-8.99
-0.97
6.71
13.07
17.62
20.28
21.22
20.57
18.46
15.07
10.82
6.36
2.43
-0.35
-1.78
-2.07
-1.74
-1.44
-1.64
-2.52
-4.07
-6.19
-8.79
-11.94
-15.58
-19.42
-22.77
-24.67
-24.17
-20.81
-14.89
-7.39
0.31
6.93
11.68
14.37
15.22
14.62
12.92
10.37
7.29
4.07
1.23
-0.80
-1.80
-1.88
-1.41
-0.90
-0.80
-1.44
-3.00
-5.51
-8.85
-12.73
-16.63
-19.87
-21.73
-21.65
-19.41
-15.22
-9.66
-3.56
2.26
7.11
10.52
12.28
12.41
11.08
8.65
5.54
2.20
-0.90
-3.41
-5.05
-5.72
-5.47
-4.56
-3.44
-2.64
-2.76
-4.29
-7.42
-11.91
-17.06
-21.78
-24.88
-25.35
-22.74
-17.29
-9.87
-1.73
5.93
12.18
16.60
19.08
19.76
18.82
16.52
13.21
9.47
5.97
3.33
1.89
1.57
1.90
2.23
1.99
0.81
-1.45
-4.76
-8.93
-13.60
-18.12
-21.62
-23.17
-22.06
-18.15
-11.94
-4.49
2.95
9.26
13.77
16.32
17.09
16.42
14.65
12.06
8.98
5.79
2.99
1.05
0.28
0.64
1.71
2.77
3.06
1.99
-0.65
-4.71
-9.65
-14.64
-18.71
-20.91
-20.56
-17.40
-11.78
-4.57
3.06
9.97
15.29
18.59
19.80
19.16
17.02
13.87
10.30
6.92
4.33
2.89
2.69
3.48
4.76
5.95
6.47
5.91
4.00
0.71
-3.72
-8.68
-13.24
-16.32
-17.01
-14.84
-10.04
-3.44
3.80
10.52
15.80
19.18
20.50
19.86
17.55
14.01
9.81
5.65
2.19
-0.09
-0.98
-0.62
0.56
1.96
2.97
3.04
1.79
-0.93
-4.94
-9.71
-14.31
-17.64
-18.69
-16.83
-12.12
-5.28
2.51
9.98
16.07
20.14
22.02
21.88
20.12
17.33
14.14
11.19
9.01
7.85
7.66
8.12
8.74
9.08
8.81
7.76
5.86
3.07
-0.60
-5.04
-9.88
-14.44
-17.76
-18.95
-17.43
-13.27
-7.17
-0.24
6.35
11.69
15.33
17.20
17.45
16.36
14.21
11.33
8.15
5.17
2.86
1.54
1.26
1.81
2.73
3.54
3.79
3.19
1.56
-1.11
-4.74
-9.00
-13.31
-16.83
-18.64
-18.04
-14.77
-9.24
-2.37
4.63
10.62
14.84
16.99
17.14
15.66
13.03
9.78
6.42
3.44
1.28
0.18
0.19
1.09
2.47
3.82
4.65
4.58
3.37
0.98
-2.44
-6.48
-10.51
-13.70
-15.27
-14.67
-11.80
-7.05
-1.19
4.86
10.25
14.33
16.70
17.26
16.10
13.54
10.10
6.44
3.20
0.92
-0.16
-0.15
0.59
1.54
2.18
2.10
1.02
-1.21
-4.65
-9.11
-14.13
-18.91
-22.43
-23.83
-22.62
-18.92
-13.41
-7.08
-0.94
4.26
8.03
10.20
10.78
9.92
7.89
5.05
1.83
-1.31
-3.97
-5.84
-6.74
-6.67
-5.81
-4.59
-3.57
-3.31
-4.15
-6.04
-8.53
-10.83
-12.13
-11.79
-9.58
-5.67
-0.55
5.12
10.67
15.53
19.22
21.42
21.94
20.77
18.17
14.60
10.63
6.85
3.69
1.34
-0.18
-1.01
-1.37
-1.54
-1.86
-2.73
-4.50
-7.33
-10.98
-14.71
-17.47
-18.22
-16.32
-11.84
-5.57
1.31
7.61
12.48
15.53
16.80
16.51
14.99
12.57
9.65
6.65
4.04
2.15
1.17
1.04
1.49
2.09
2.38
1.97
0.62
-1.63
-4.57
-7.86
-11.01
-13.57
-15.05
-15.03
-13.28
-9.88
-5.29
-0.28
4.27
7.60
9.30
9.31
7.87
5.32
2.05
-1.50
-4.83
-7.45
-8.92
-9.08
-8.06
-6.32
-4.41
-2.90
-2.19
-2.54
-4.08
-6.76
-10.33
-14.21
-17.60
-19.58
-19.49
-17.12
-12.83
-7.40
-1.82
3.06
6.69
8.83
9.52
8.94
7.37
5.12
2.58
0.15
-1.83
-3.15
-3.72
-3.57
-2.89
-2.01
-1.30
-1.23
-2.17
-4.29
-7.50
-11.39
-15.25
-18.24
-19.47
-18.31
-14.56
-8.57
-1.23
6.24
12.60
16.97
18.95
18.71
16.78
13.80
10.36
6.88
3.64
0.85
-1.34
-2.86
-3.68
-3.92
-3.80
-3.68
-3.96
-5.04
-7.13
-10.11
-13.47
-16.36
-17.78
-16.88
-13.31
-7.38
-0.03
7.44
13.82
18.32
20.73
21.34
20.66
19.14
17.05
14.57
11.91
9.43
7.51
6.37
5.89
5.68
5.18
3.96
1.82
-1.22
-5.13
-9.82
-15.07
-20.31
-24.55
-26.58
-25.42
-20.76
-13.21
-4.14
4.75
11.99
16.74
18.81
18.54
16.48
13.22
9.24
4.99
0.99
-2.27
-4.32
-4.96
-4.33
-3.01
-1.84
-1.64
-2.90
-5.59
-9.17
-12.88
-15.95
-17.83
-18.17
-16.78
-13.70
-9.11
-3.56
2.18
7.22
10.81
12.50
12.16
9.99
6.35
1.72
-3.24
-7.73
-10.92
-12.07
-11.00
-8.08
-4.29
-0.92
0.91
0.50
-2.17
-6.48
-11.37
-15.57
-17.93
-17.65
-14.47
-8.70
-1.18
7.02
14.84
21.39
26.12
28.75
29.24
27.79
24.84
21.07
17.30
14.29
12.51
12.02
12.56
13.64
14.79
15.61
15.72
14.75
12.40
8.66
4.00
-0.51
-3.50
-3.76
-0.64
5.64
14.10
23.38
32.10
39.21
44.01
46.12
45.40
41.94
36.24
29.36
22.70
17.78
15.63
16.36
19.15
22.58
25.21
26.10
24.94
21.88
17.27
11.51
5.18
-0.80
-5.22
-6.92
-5.40
-1.18
4.37
9.64
13.47
15.55
16.29
16.39
16.33
16.31
16.23
15.93
15.34
14.48
13.42
12.21
10.82
9.10
6.76
3.46
-1.17
-7.19
-14.26
-21.49
-27.64
-31.54
-32.39
-30.07
-25.14
-18.58
-11.54
-5.05
0.19
3.77
5.50
5.23
2.84
-1.67
-8.02
-15.58
-23.41
-30.50
-36.11
-39.99
-42.38
-43.96
-45.54
-47.86
-51.42
-56.37
-62.55
-69.47
-76.37
-82.20
-85.67
-85.53
-80.97
-72.05
-59.90
-46.55
-34.38
-25.37
-20.51
-19.56
-21.31
-24.08
-26.37
-27.20
-26.27
-23.70
-19.92
-15.44
-10.77
-6.50
-3.29
-1.88
-2.84
-6.39
-12.05
-18.64
-24.59
-28.41
-29.24
-27.12
-22.89
-17.66
-12.34
-7.36
-2.67
1.80
5.82
8.63
9.29
7.17
2.51
-3.56
-9.27
-13.08
-14.34
-13.48
-11.73
-10.37
-10.14
-11.07
-12.79
-14.96
-17.37
-19.71
-21.24
-20.84
-17.50
-11.01
-2.25
7.00
14.96
20.75
24.79
28.43
32.77
37.57
40.89
39.87
32.21
17.66
-1.57
-21.39
-37.43
-46.75
-48.83
-45.63
-40.46
-36.44
-35.31
-37.00
-40.19
-43.11
-44.38
-43.09
-38.73
-31.07
-19.98
-5.78
10.59
27.45
42.69
54.33
61.15
63.01
60.69
55.46
48.64
41.34
34.38
28.34
23.55
20.01
17.35
15.01
12.41
9.26
5.57
1.65
-2.18
-5.66
-8.68
-11.19
-13.02
-13.84
-13.23
-10.82
-6.56
-0.79
5.82
12.43
18.29
22.95
26.31
28.58
30.12
31.26
32.15
32.74
32.81
31.99
29.86
26.05
20.42
13.27
5.42
-1.82
-6.99
-8.88
-6.94
-1.49
6.37
15.07
23.09
29.28
33.06
34.40
33.58
31.05
27.31
22.89
18.33
14.21
11.04
9.15
8.58
9.04
9.91
10.42
9.76
7.33
2.98
-2.97
-9.65
-15.86
-20.29
-21.82
-19.87
-14.52
-6.54
2.75
11.80
19.23
24.14
26.31
26.09
24.19
21.35
18.09
14.65
11.16
7.74
4.58
1.90
-0.17
-1.71
-2.97
-4.41
-6.55
-9.96
-15.18
-22.57
-32.02
-42.59
-52.41
-58.89
-59.55
-52.93
-39.39
-21.13
-1.53
16.03
29.13
36.83
39.42
37.92
33.55
27.62
21.48
16.63
14.34
15.21
18.84
23.81
28.24
30.53
29.93
26.63
21.40
15.09
8.32
1.52
-4.75
-9.60
-11.85
-10.54
-5.41
2.80
12.49
21.76
29.13
33.92
36.28
36.83
36.13
34.48
31.82
28.04
23.26
17.97
12.91
8.78
5.93
4.24
3.23
2.27
0.83
-1.43
-4.70
-9.05
-14.43
-20.45
-26.29
-30.73
-32.49
-30.72
-25.44
-17.56
-8.67
-0.37
6.18
10.42
12.43
12.53
11.13
8.60
5.32
1.73
-1.68
-4.50
-6.53
-7.73
-8.29
-8.46
-8.53
-8.77
-9.42
-10.74
-12.96
-16.12
-20.04
-24.13
-27.47
-29.06
-28.07
-24.22
-17.89
-10.01
-1.83
5.49
11.10
14.60
15.96
15.42
13.40
10.39
6.99
3.80
1.33
-0.09
-0.41
0.15
1.14
2.02
2.28
1.54
-0.42
-3.70
-8.26
-13.84
-19.90
-25.55
-29.61
-30.93
-28.79
-23.26
-15.24
-6.27
1.98
8.21
11.79
12.78
11.72
9.34
6.40
3.49
1.07
-0.59
-1.41
-1.56
-1.37
-1.29
-1.70
-2.75
-4.37
-6.31
-8.35
-10.42
-12.58
-14.91
-17.25
-19.09
-19.66
-18.25
-14.49
-8.67
-1.60
5.56
11.76
16.30
18.91
19.75
19.16
17.58
15.38
12.96
10.69
8.87
7.66
6.98
6.54
5.89
4.62
2.52
-0.34
-3.73
-7.44
-11.43
-15.73
-20.31
-24.78
-28.35
-29.97
-28.78
-24.55
-17.83
-9.85
-2.09
4.20
8.30
10.07
9.76
7.81
4.69
0.90
-3.03
-6.53
-9.06
-10.28
-10.14
-8.88
-7.02
-5.13
-3.79
-3.49
-4.56
-7.20
-11.30
-16.38
-21.50
-25.34
-26.54
-24.19
-18.16
-9.22
1.12
11.11
19.30
24.83
27.51
27.63
25.71
22.34
18.15
13.73
9.74
6.71
4.96
4.45
4.83
5.54
5.99
5.73
4.47
2.09
-1.38
-5.83
-10.98
-16.31
-21.06
-24.31
-25.19
-23.11
-18.10
-10.81
-2.42
5.72
12.42
16.95
19.17
19.33
17.90
15.39
12.25
8.84
5.53
2.65
0.50
-0.77
-1.24
-1.17
-1.02
-1.28
-2.39
-4.70
-8.34
-13.14
-18.60
-23.80
-27.60
-28.93
-27.15
-22.33
-15.26
-7.23
0.38
6.45
10.41
12.16
11.96
10.27
7.61
4.55
1.62
-0.67
-2.00
-2.33
-1.83
-0.88
0.20
1.08
1.56
1.44
0.47
-1.59
-4.83
-8.95
-13.26
-16.70
-18.24
-17.20
-13.53
-7.85
-1.28
4.94
9.73
12.46
12.93
11.40
8.39
4.58
0.69
-2.69
-5.10
-6.31
-6.35
-5.39
-3.77
-1.90
-0.29
0.60
0.42
-1.03
-3.72
-7.38
-11.48
-15.26
-17.82
-18.28
-16.10
-11.22
-4.23
3.82
11.62
18.04
22.34
24.37
24.37
22.87
20.44
17.56
14.57
11.77
9.39
7.63
6.59
6.20
6.19
6.12
5.50
3.89
1.01
-3.24
-8.69
-14.85
-20.90
-25.69
-28.04
-27.11
-22.66
-15.34
-6.44
2.47
10.03
15.42
18.43
19.31
18.52
16.56
13.92
11.12
8.67
7.01
6.35
6.61
7.44
8.33
8.88
8.85
8.20
6.98
5.12
2.35
-1.66
-7.04
-13.38
-19.57
-24.03
-25.19
-22.16
-15.15
-5.45
4.99
14.28
21.11
25.01
26.21
25.33
23.06
20.00
16.71
13.70
11.43
10.24
10.20
11.13
12.60
14.08
15.07
15.26
14.48
12.72
10.06
6.58
2.35
-2.40
-7.19
-11.08
-12.88
-11.51
-6.45
1.89
12.16
22.48
30.97
36.34
38.22
37.08
33.98
30.19
26.81
24.49
23.35
23.02
22.90
22.31
20.87
18.48
15.35
11.85
8.34
5.11
2.32
-0.04
-2.16
-4.46
-7.48
-11.69
-17.19
-23.42
-29.24
-33.20
-34.10
-31.42
-25.54
-17.63
-9.16
-1.52
4.34
8.01
9.51
9.20
7.66
5.51
3.37
1.66
0.51
-0.23
-0.85
-1.57
-2.40
-3.18
-3.74
-4.02
-4.18
-4.52
-5.35
-6.88
-9.19
-12.18
-15.54
-18.74
-20.96
-21.24
-18.77
-13.29
-5.27
4.08
13.18
20.58
25.34
27.29
26.82
24.68
21.64
18.31
15.12
12.35
10.18
8.72
7.95
7.71
7.68
7.50
6.83
5.51
3.55
1.08
-1.81
-5.11
-8.95
-13.38
-18.14
-22.46
-25.17
-25.04
-21.30
-14.04
-4.30
6.18
15.59
22.54
26.45
27.51
26.39
23.95
20.96
18.00
15.45
13.56
12.45
12.02
12.01
12.02
11.66
10.67
9.02
6.82
4.26
1.46
-1.59
-5.01
-9.00
-13.58
-18.50
-23.03
-26.15
-26.74
-24.03
-17.92
-9.18
0.73
10.12
17.52
22.13
23.82
23.09
20.65
17.31
13.78
10.69
8.53
7.62
7.96
9.17
10.57
11.38
11.00
9.23
6.31
2.78
-0.74
-3.81
-6.32
-8.52
-10.90
-13.96
-17.94
-22.56
-26.97
-29.94
-30.20
-27.00
-20.42
-11.43
-1.59
7.53
14.76
19.66
22.32
23.13
22.41
20.44
17.48
14.03
10.80
8.61
7.97
8.87
10.71
12.53
13.40
12.79
10.78
7.88
4.82
2.14
0.06
-1.57
-3.11
-5.01
-7.63
-11.19
-15.71
-20.83
-25.86
-29.69
-31.14
-29.27
-23.80
-15.27
-4.99
5.39
14.36
20.93
24.75
26.02
25.27
23.12
20.17
16.95
13.99
11.71
10.43
10.27
11.08
12.41
13.61
14.00
13.10
10.82
7.51
3.82
0.42
-2.26
-4.19
-5.70
-7.31
-9.54
-12.75
-16.99
-21.99
-27.01
-31.06
-32.97
-31.85
-27.34
-19.84
-10.39
-0.38
8.79
16.10
20.94
23.19
23.01
20.85
17.35
13.28
9.48
6.66
5.24
5.28
6.45
8.18
9.84
10.86
10.87
9.79
7.80
5.22
2.45
-0.27
-2.80
-5.21
-7.72
-10.61
-14.13
-18.34
-23.01
-27.51
-30.91
-32.20
-30.62
-25.98
-18.83
-10.26
-1.69
5.63
10.89
13.73
14.25
12.80
9.86
6.10
2.33
-0.60
-2.02
-1.71
-0.05
2.14
3.88
4.48
3.80
2.24
0.48
-0.84
-1.44
-1.43
-1.27
-1.59
-2.97
-5.83
-10.19
-15.60
-21.07
-25.20
-26.63
-24.42
-18.54
-9.95
-0.29
8.68
15.63
20.02
22.03
22.20
21.12
19.21
16.76
14.10
11.70
10.09
9.63
10.30
11.70
13.12
13.81
13.22
11.16
7.70
3.17
-2.01
-7.41
-12.64
-17.38
-21.32
-24.21
-25.69
-25.45
-23.26
-19.19
-13.63
-7.33
-1.16
4.05
7.74
9.63
9.73
8.25
5.52
2.08
-1.43
-4.25
-5.77
-5.64
-4.08
-1.73
0.50
1.77
1.63
0.19
-2.02
-4.29
-6.08
-7.23
-7.97
-8.74
-9.97
-11.85
-14.17
-16.41
-17.72
-17.24
-14.31
-8.73
-0.87
8.32
17.53
25.52
31.48
35.40
38.08
40.82
44.94
51.03
58.63
66.19
71.62
73.21
70.47
64.69
58.50
54.84
55.62
60.72
67.71
72.60
71.10
59.99
38.07
6.58
-30.94
-69.20
-102.00
-123.56
-129.95
-120.31
-97.44
-67.12
-36.45
-11.73
3.23
7.78
3.85
-5.33
-16.57
-27.58
-37.09
-44.56
-49.86
-52.99
-54.18
-53.88
-52.68
-51.08
-49.35
-47.42
-45.06
-42.19
-39.17
-36.79
-35.97
-37.22
-40.26
-43.93
-46.49
-46.30
-42.47
-35.22
-25.79
-16.03
-7.71
-2.09
0.47
0.31
-1.69
-4.50
-7.21
-9.22
-10.24
-10.25
-9.50
-8.36
-7.23
-6.44
-6.17
-6.39
-7.00
-7.98
-9.46
-11.75
-15.18
-19.76
-24.95
-29.58
-32.15
-31.35
-26.62
-18.43
-8.15
2.35
11.40
17.98
21.84
23.35
23.13
21.75
19.64
17.12
14.56
12.31
10.70
9.84
9.54
9.37
8.80
7.44
5.18
2.16
-1.36
-5.23
-9.43
-14.03
-18.93
-23.58
-26.95
-27.81
-25.17
-18.80
-9.42
1.51
12.24
21.37
28.14
32.46
34.62
35.08
34.24
32.47
30.19
27.82
25.77
24.24
23.21
22.44
21.62
20.53
19.06
17.21
15.00
12.38
9.12
4.96
-0.39
-6.94
-14.31
-21.63
-27.59
-30.80
-30.15
-25.24
-16.57
-5.44
6.39
17.19
25.72
31.48
34.63
35.76
35.58
34.70
33.50
32.18
30.86
29.59
28.35
27.10
25.72
24.17
22.46
20.69
18.93
17.18
15.29
13.07
10.34
7.16
3.75
0.44
-2.50
-4.97
-7.11
-9.21
-11.66
-14.90
-19.27
-24.84
-31.24
-37.50
-42.16
-43.70
-41.01
-33.88
-23.22
-10.76
1.56
12.16
20.29
26.01
29.83
32.33
33.90
34.67
34.68
34.06
33.07
32.05
31.27
30.80
30.50
30.11
29.36
28.09
26.30
24.10
21.68
19.20
16.81
14.52
12.26
9.89
7.24
4.20
0.78
-2.89
-6.56
-9.96
-12.91
-15.39
-17.60
-19.88
-22.64
-26.28
-30.99
-36.66
-42.70
-48.06
-51.41
-51.52
-47.66
-39.98
-29.49
-17.75
-6.42
3.28
10.77
15.98
19.20
20.77
20.99
20.21
18.90
17.64
16.93
17.01
17.75
18.71
19.34
19.30
18.55
17.38
16.16
15.10
14.09
12.77
10.67
7.51
3.37
-1.30
-5.92
-9.92
-13.06
-15.40
-17.25
-19.08
-21.30
-24.24
-28.03
-32.50
-37.08
-40.81
-42.47
-40.96
-35.73
-27.03
-15.97
-4.17
6.74
15.62
22.00
26.01
28.11
28.77
28.40
27.32
25.82
24.32
23.15
22.55
22.52
22.82
23.01
22.74
21.77
20.15
18.06
15.79
13.48
11.14
8.60
5.66
2.25
-1.52
-5.30
-8.67
-11.31
-13.14
-14.45
-15.83
-17.97
-21.44
-26.37
-32.31
-38.17
-42.45
-43.68
-40.86
-33.94
-23.79
-11.98
-0.27
9.96
17.89
23.38
26.69
28.26
28.58
28.13
27.44
26.97
27.07
27.87
29.19
30.71
32.07
33.05
33.60
33.86
34.02
34.22
34.38
34.24
33.44
31.60
28.55
24.37
19.42
14.18
9.11
4.47
0.32
-3.46
-7.10
-10.89
-15.14
-20.05
-25.55
-31.08
-35.46
-37.02
-34.04
-25.48
-11.48
6.42
25.77
44.10
59.76
72.37
82.57
91.39
99.55
107.20
114.02
119.59
123.49
125.35
124.62
120.58
112.64
100.69
85.40
68.10
50.48
34.20
20.65
10.75
4.82
2.44
2.39
2.99
2.74
0.90
-2.23
-5.75
-8.94
-11.85
-15.36
-20.37
-26.88
-33.50
-37.91
-37.95
-32.86
-23.79
-13.29
-4.18
1.71
4.14
4.17
3.44
3.25
4.14
5.96
8.32
11.01
14.15
17.79
21.59
24.47
24.88
21.38
13.42
1.67
-12.19
-26.23
-39.13
-50.54
-60.72
-69.78
-77.12
-81.31
-80.81
-74.89
-64.14
-50.32
-35.50
-21.07
-7.31
6.48
21.28
37.55
54.88
72.15
87.99
101.36
111.74
119.23
124.21
127.11
128.19
127.45
124.72
119.85
112.91
104.21
94.35
83.97
73.61
63.50
53.54
43.42
32.84
21.72
10.22
-1.37
-12.85
-24.24
-35.70
-47.34
-59.07
-70.49
-81.13
-90.63
-98.88
-105.89
-111.57
-115.51
-116.99
-115.35
-110.30
-102.18
-92.01
-81.19
-71.15
-63.09
-57.69
-55.07
-54.78
-55.97
-57.67
-58.93
-59.11
-57.99
-55.72
-52.79
-49.87
-47.65
-46.67
-47.27
-49.40
-52.74
-56.73
-60.83
-64.60
-67.84
-70.58
-73.03
-75.54
-78.45
-81.94
-85.85
-89.55
-92.03
-92.16
-89.20
-83.13
-74.81
-65.70
-57.42
-51.14
-47.39
-46.02
-46.37
-47.65
-49.01
-49.69
-49.02
-46.49
-41.86
-35.28
-27.28
-18.62
-10.14
-2.45
4.20
9.93
15.09
20.07
25.04
29.79
33.75
36.17
36.36
34.05
29.55
23.82
18.16
13.82
11.68
11.91
14.03
17.07
19.89
21.53
21.43
19.49
15.99
11.40
6.24
0.89
-4.33
-9.30
-14.05
-18.75
-23.75
-29.45
-36.25
-44.37
-53.87
-64.60
-76.38
-89.03
-102.43
-116.50
-131.17
-146.34
-161.94
-177.91
-194.08
-210.15
-225.58
-239.67
-251.61
-260.58
-265.74
-266.25
-261.32
-250.38
-233.50
-211.57
-186.36
-160.17
-135.24
-113.21
-94.82
-80.09
-68.56
-59.73
-53.25
-48.83
-46.17
-44.70
-43.50
-41.34
-36.91
-29.35
-18.71
-6.25
5.72
14.51
18.11
16.18
10.55
4.86
3.29
8.93
22.65
42.78
65.93
88.46
107.64
122.33
132.59
138.93
141.56
140.33
135.12
126.52
116.24
106.78
100.58
99.16
102.47
109.06
116.79
123.75
128.78
131.56
132.17
130.59
126.51
119.53
109.82
98.51
87.86
80.67
79.33
84.82
96.27
111.20
126.19
137.92
143.84
142.64
134.33
120.19
102.43
83.74
66.66
52.92
43.03
36.15
30.44
23.76
14.35
1.46
-14.43
-31.72
-48.13
-61.38
-69.90
-73.17
-71.71
-66.46
-58.11
-46.49
-30.68
-9.50
17.66
50.34
86.99
125.35
163.10
198.08
228.24
251.42
265.40
268.30
259.44
239.94
212.75
181.92
151.32
123.54
99.38
78.09
58.25
38.60
18.58
-1.73
-22.03
-42.24
-62.66
-83.75
-105.75
-128.32
-150.35
-170.24
-186.34
-197.58
-203.92
-206.38
-206.63
-206.33
-206.51
-207.19
-207.62
-206.63
-203.16
-196.53
-186.53
-173.33
-157.39
-139.53
-120.75
-102.25
-85.14
-70.23
-57.89
-48.08
-40.51
-34.84
-30.84
-28.48
-27.84
-28.92
-31.38
-34.18
-35.51
-33.04
-24.53
-8.73
13.97
41.40
70.16
96.62
117.99
132.87
141.33
144.39
143.44
139.86
134.85
129.46
124.62
121.04
119.05
118.48
118.72
118.95
118.52
117.22
115.35
113.47
112.06
111.19
110.37
108.74
105.51
100.46
94.20
87.99
83.16
80.34
78.86
76.78
71.58
61.17
44.79
23.40
-0.80
-25.20
-47.85
-67.88
-85.44
-101.10
-115.21
-127.65
-138.03
-146.24
-152.94
-159.63
-168.10
-179.71
-194.63
-211.73
-228.94
-244.01
-255.13
-261.23
-261.76
-256.45
-245.13
-227.98
-205.79
-179.93
-151.94
-122.96
-93.18
-62.15
-29.49
4.12
36.46
64.22
84.05
93.94
94.08
86.69
75.24
63.18
53.02
45.94
41.94
40.35
40.25
40.72
40.81
39.51
35.82
29.12
19.62
8.76
-0.86
-6.07
-4.27
5.54
22.26
42.91
63.73
81.37
93.86
100.82
103.05
101.85
98.37
93.56
88.10
82.62
77.66
73.53
70.16
67.16
63.97
60.18
55.67
50.59
45.13
39.31
32.91
25.50
16.81
7.01
-3.00
-11.57
-16.64
-16.40
-9.95
2.13
17.91
34.58
49.37
60.29
66.54
68.39
66.77
62.80
57.47
51.67
46.13
41.48
38.09
36.01
34.91
34.20
33.30
31.83
29.71
27.14
24.38
21.57
18.57
14.94
10.05
3.48
-4.60
-13.18
-20.42
-24.11
-22.45
-14.83
-2.21
13.07
28.05
40.08
47.62
50.43
49.36
45.78
41.03
36.17
31.94
28.79
26.96
26.48
27.01
27.96
28.57
28.20
26.54
23.71
20.13
16.22
12.20
7.87
2.73
-3.63
-11.18
-19.08
-25.73
-29.18
-27.85
-21.08
-9.57
4.86
19.83
33.06
43.00
49.04
51.33
50.49
47.30
42.61
37.28
32.20
28.14
25.48
24.16
23.62
23.10
21.90
19.71
16.60
12.90
8.95
4.89
0.62
-4.15
-9.77
-16.46
-24.08
-31.96
-38.87
-43.25
-43.62
-39.18
-30.19
-18.01
-4.72
7.54
17.10
23.15
25.65
25.11
22.36
18.28
13.77
9.67
6.61
4.88
4.36
4.57
4.91
4.86
4.17
2.84
1.04
-1.05
-3.39
-6.05
-9.33
-13.47
-18.60
-24.43
-30.10
-34.32
-35.56
-32.69
-25.40
-14.46
-1.55
11.26
22.05
29.55
33.30
33.53
30.93
26.44
21.08
15.86
11.61
8.81
7.49
7.25
7.46
7.44
6.75
5.23
2.98
0.23
-2.87
-6.30
-10.22
-14.90
-20.56
-27.09
-33.81
-39.50
-42.54
-41.51
-35.70
-25.57
-12.65
0.81
12.57
21.03
25.50
26.22
24.05
20.12
15.50
11.15
7.78
5.75
5.10
5.49
6.34
7.00
6.94
5.93
4.04
1.57
-1.12
-3.83
-6.59
-9.68
-13.46
-18.12
-23.41
-28.53
-32.20
-33.03
-30.01
-22.98
-12.78
-1.05
10.27
19.56
25.86
28.96
29.26
27.40
24.08
20.02
15.93
12.49
10.27
9.52
10.07
11.38
12.78
13.63
13.59
12.57
10.69
8.15
5.06
1.45
-2.77
-7.79
-13.61
-19.88
-25.73
-29.81
-30.61
-27.09
-19.10
-7.68
5.27
17.52
27.24
33.38
35.82
35.09
32.07
27.73
22.94
18.47
14.95
12.79
12.08
12.51
13.55
14.49
14.71
13.89
11.97
9.18
5.86
2.25
-1.61
-5.90
-10.89
-16.64
-22.73
-28.14
-31.53
-31.58
-27.59
-19.78
-9.33
1.98
12.28
20.13
24.81
26.27
24.94
21.61
17.09
12.21
7.73
4.20
1.98
1.10
1.37
2.36
3.58
4.54
4.83
4.23
2.68
0.26
-2.90
-6.75
-11.36
-16.81
-22.96
-29.17
-34.27
-36.87
-35.78
-30.60
-21.91
-11.18
-0.26
9.15
15.92
19.65
20.50
19.03
15.93
11.90
7.64
3.77
0.81
-0.90
-1.32
-0.67
0.61
1.98
2.98
3.35
3.03
2.05
0.43
-1.98
-5.43
-10.14
-16.03
-22.44
-28.21
-31.83
-31.99
-28.03
-20.25
-9.88
1.31
11.51
19.37
24.19
25.90
24.90
21.81
17.36
12.32
7.50
3.58
1.04
-0.02
0.12
0.89
1.63
1.77
1.06
-0.50
-2.68
-5.22
-8.01
-11.14
-14.85
-19.32
-24.44
-29.62
-33.81
-35.74
-34.34
-29.16
-20.63
-10.00
1.00
10.72
17.99
22.28
23.71
22.73
19.98
16.12
11.87
7.99
5.12
3.69
3.68
4.72
6.13
7.21
7.45
6.61
4.76
2.13
-1.02
-4.53
-8.40
-12.74
-17.64
-22.87
-27.83
-31.49
-32.71
-30.59
-24.91
-16.25
-5.94
4.40
13.28
19.64
23.06
23.64
21.80
18.26
13.82
9.38
5.79
3.65
3.07
3.72
4.91
5.84
5.97
5.12
3.52
1.57
-0.44
-2.42
-4.55
-7.10
-10.39
-14.45
-19.05
-23.59
-27.21
-28.92
-27.90
-23.74
-16.68
-7.64
2.07
10.96
17.85
21.99
23.19
21.77
18.37
13.92
9.36
5.59
3.21
2.43
3.00
4.32
5.73
6.65
6.80
6.16
4.87
3.12
0.99
-1.48
-4.33
-7.64
-11.50
-15.93
-20.70
-25.24
-28.62
-29.71
-27.64
-22.15
-13.82
-3.98
5.69
13.69
18.98
21.22
20.63
17.82
13.60
8.89
4.57
1.36
-0.34
-0.61
0.08
0.99
1.37
0.72
-1.06
-3.68
-6.67
-9.57
-12.14
-14.46
-16.85
-19.75
-23.35
-27.49
-31.48
-34.23
-34.61
-31.87
-25.98
-17.74
-8.62
-0.23
6.09
9.67
10.56
9.34
6.86
3.99
1.42
-0.38
-1.14
-0.90
0.10
1.44
2.69
3.53
3.80
3.53
2.77
1.52
-0.29
-2.79
-6.11
-10.33
-15.36
-20.86
-26.12
-30.04
-31.30
-28.78
-22.03
-11.63
0.82
13.11
23.16
29.58
32.03
31.09
27.85
23.46
18.82
14.49
10.85
8.07
6.28
5.38
5.10
4.98
4.55
3.53
1.87
-0.25
-2.55
-4.86
-7.25
-10.00
-13.41
-17.53
-21.92
-25.69
-27.75
-27.20
-23.74
-17.80
-10.41
-2.83
3.86
9.02
12.46
14.27
14.65
13.83
12.11
9.91
7.71
5.94
4.81
4.28
4.06
3.80
3.22
2.21
0.78
-1.03
-3.15
-5.54
-8.20
-11.20
-14.63
-18.54
-22.73
-26.59
-29.14
-29.24
-26.05
-19.51
-10.44
-0.39
8.91
16.09
20.49
22.18
21.72
19.78
16.97
13.78
10.65
7.94
5.96
4.88
4.69
5.12
5.78
6.21
6.03
4.99
3.06
0.30
-3.17
-7.32
-12.15
-17.57
-23.14
-28.00
-30.96
-30.83
-26.95
-19.52
-9.66
0.92
10.43
17.49
21.54
22.70
21.65
19.23
16.21
13.12
10.32
8.01
6.27
5.14
4.51
4.19
3.89
3.26
2.02
0.06
-2.63
-5.95
-9.85
-14.33
-19.35
-24.60
-29.34
-32.47
-32.82
-29.63
-22.96
-13.75
-3.66
5.56
12.60
16.84
18.42
17.92
16.07
13.49
10.65
7.89
5.53
3.80
2.90
2.87
3.56
4.63
5.60
5.93
5.18
3.07
-0.45
-5.23
-10.89
-16.86
-22.31
-26.22
-27.59
-25.65
-20.23
-11.96
-2.11
7.68
15.91
21.61
24.46
24.77
23.14
20.28
16.82
13.28
10.11
7.64
6.06
5.34
5.24
5.39
5.36
4.87
3.75
1.95
-0.55
-3.83
-7.97
-12.88
-18.19
-23.09
-26.44
-27.13
-24.50
-18.59
-10.22
-0.78
8.31
15.83
21.07
23.76
23.92
21.84
18.00
13.11
8.00
3.51
0.24
-1.62
-2.31
-2.36
-2.30
-2.52
-3.16
-4.15
-5.45
-7.12
-9.45
-12.76
-17.16
-22.17
-26.78
-29.59
-29.36
-25.50
-18.39
-9.23
0.34
8.85
15.31
19.36
21.08
20.76
18.80
15.64
11.82
8.02
4.82
2.70
1.77
1.85
2.53
3.32
3.76
3.54
2.50
0.54
-2.40
-6.39
-11.32
-16.81
-22.05
-25.91
-27.14
-24.92
-19.17
-10.73
-1.16
7.78
14.69
18.91
20.57
20.28
18.82
16.71
14.26
11.59
8.88
6.41
4.54
3.55
3.39
3.70
3.92
3.51
2.16
-0.14
-3.27
-7.02
-11.30
-16.04
-20.90
-25.19
-27.89
-27.87
-24.47
-17.78
-8.78
1.01
9.93
16.78
21.02
22.75
22.54
21.04
18.77
16.14
13.40
10.81
8.66
7.16
6.38
6.17
6.17
5.97
5.25
3.87
1.88
-0.61
-3.56
-7.02
-10.99
-15.27
-19.22
-21.84
-21.98
-18.83
-12.27
-3.13
7.09
16.62
23.99
28.48
30.13
29.64
27.90
25.65
23.35
21.15
19.09
17.19
15.54
14.20
13.12
12.02
10.54
8.26
5.00
0.76
-4.20
-9.57
-15.10
-20.60
-25.90
-30.67
-34.35
-36.16
-35.35
-31.54
-24.93
-16.36
-7.12
1.43
8.24
12.81
15.20
15.88
15.43
14.36
12.99
11.55
10.19
9.15
8.67
8.85
9.54
10.32
10.61
9.94
8.20
5.65
2.86
0.44
-1.20
-1.80
-1.26
0.45
3.31
7.08
11.15
14.65
16.77
17.09
15.86
13.82
11.77
10.21
8.99
7.54
5.27
1.91
-2.30
-6.84
-11.12
-14.81
-17.80
-20.14
-21.86
-22.93
-23.29
-23.06
-22.55
-22.36
-23.17
-25.45
-29.16
-33.60
-37.50
-39.36
-38.02
-33.11
-25.23
-15.75
-6.31
1.73
7.73
11.67
13.96
15.06
15.25
14.62
13.18
11.12
8.77
6.50
4.65
3.36
2.62
2.32
2.35
2.52
2.56
2.02
0.34
-2.90
-7.73
-13.61
-19.51
-24.13
-26.28
-25.33
-21.31
-14.89
-7.12
0.79
7.79
13.05
16.09
16.74
15.15
11.82
7.50
3.07
-0.66
-3.13
-4.14
-3.86
-2.76
-1.43
-0.48
-0.36
-1.38
-3.59
-6.90
-11.08
-15.74
-20.33
-24.04
-25.88
-24.92
-20.66
-13.29
-3.88
5.94
14.45
20.44
23.51
23.99
22.70
20.46
17.85
15.15
12.50
10.04
7.94
6.37
5.41
4.90
4.52
3.85
2.56
0.46
-2.44
-6.02
-10.15
-14.69
-19.38
-23.77
-27.11
-28.51
-27.14
-22.68
-15.50
-6.70
2.20
9.73
14.91
17.54
18.01
17.04
15.36
13.43
11.48
9.61
7.94
6.65
5.94
5.81
6.08
6.30
5.97
4.75
2.59
-0.35
-3.73
-7.38
-11.19
-15.05
-18.69
-21.49
-22.63
-21.32
-17.23
-10.65
-2.53
5.86
13.27
18.78
22.03
23.11
22.47
20.72
18.41
16.01
13.81
11.90
10.29
8.93
7.76
6.77
5.88
5.01
3.98
2.59
0.69
-1.74
-4.67
-7.97
-11.52
-15.10
-18.36
-20.73
-21.51
-20.03
-15.92
-9.33
-0.98
7.96
16.13
22.38
25.98
26.84
25.43
22.69
19.63
17.11
15.56
14.90
14.77
14.72
14.49
14.07
13.64
13.33
13.14
12.86
12.28
11.27
9.74
7.52
4.24
-0.60
-7.13
-14.70
-21.70
-25.88
-25.31
-19.27
-8.80
3.60
14.92
22.82
26.37
26.13
23.44
19.58
15.27
10.66
5.71
0.54
-4.32
-8.28
-10.87
-12.11
-12.46
-12.64
-13.27
-14.62
-16.45
-18.12
-18.88
-18.17
-16.00
-13.01
-10.28
-8.77
-8.95
-10.39
-12.10
-12.96
-12.40
-10.69
-8.82
-7.93
-8.75
-11.30
-14.93
-18.70
-21.85
-23.96
-24.98
-25.06
-24.36
-22.97
-20.96
-18.42
-15.57
-12.67
-9.97
-7.61
-5.56
-3.69
-1.89
-0.17
1.31
2.33
2.65
2.25
1.30
0.26
-0.20
0.62
3.20
7.60
13.27
19.18
24.13
27.10
27.70
26.33
23.95
21.67
20.24
19.74
19.76
19.72
19.35
18.84
18.67
19.20
20.38
21.71
22.51
22.38
21.32
19.71
17.87
15.85
13.38
10.19
6.31
2.31
-0.92
-2.53
-2.04
0.49
4.59
9.62
14.93
19.90
23.97
26.60
27.38
26.27
23.61
20.07
16.41
13.25
10.82
9.05
7.65
6.40
5.24
4.23
3.44
2.78
2.01
0.78
-1.10
-3.65
-6.61
-9.58
-12.14
-13.92
-14.59
-13.87
-11.53
-7.49
-1.98
4.35
10.52
15.47
18.40
18.99
17.51
14.67
11.34
8.25
5.89
4.49
4.04
4.36
5.07
5.61
5.37
3.84
0.85
-3.38
-8.25
-13.01
-16.97
-19.73
-21.19
-21.48
-20.82
-19.37
-17.29
-14.77
-12.12
-9.78
-8.21
-7.67
-8.09
-9.01
-9.78
-9.81
-8.92
-7.32
-5.53
-4.11
-3.36
-3.33
-3.86
-4.75
-5.96
-7.50
-9.42
-11.66
-14.03
-16.28
-18.25
-19.93
-21.48
-23.10
-24.95
-26.98
-28.86
-30.01
-29.85
-27.92
-24.14
-18.88
-12.94
-7.28
-2.79
-0.04
0.83
0.12
-1.61
-3.70
-5.62
-7.08
-8.00
-8.51
-8.83
-9.22
-9.94
-11.20
-13.11
-15.56
-18.18
-20.30
-21.22
-20.43
-17.89
-14.07
-9.72
-5.60
-2.14
0.65
2.98
5.07
6.94
8.47
9.47
9.91
10.00
9.98
9.94
9.66
8.65
6.42
2.84
-1.74
-6.43
-10.27
-12.55
-13.14
-12.57
-11.70
-11.40
-12.21
-14.20
-17.05
-20.19
-22.96
-24.77
-25.11
-23.63
-20.27
-15.25
-9.09
-2.49
3.81
9.17
13.18
15.59
16.43
15.83
14.13
11.77
9.29
7.19
5.90
5.71
6.76
8.95
11.81
14.49
15.94
15.11
11.40
4.89
-3.59
-12.73
-21.12
-27.60
-31.44
-32.30
-30.23
-25.57
-18.97
-11.37
-3.85
2.51
6.95
9.15
9.23
7.58
4.77
1.45
-1.73
-4.23
-5.71
-6.16
-5.84
-5.19
-4.60
-4.28
-4.20
-4.26
-4.37
-4.68
-5.47
-6.99
-9.22
-11.79
-13.99
-15.03
-14.30
-11.58
-7.10
-1.40
4.92
11.37
17.64
23.58
28.96
33.51
36.83
38.51
38.24
35.90
31.65
25.85
19.07
11.98
5.27
-0.49
-4.94
-8.01
-9.87
-10.92
-11.62
-12.47
-13.90
-16.17
-19.29
-22.89
-26.29
-28.60
-28.94
-26.82
-22.26
-15.85
-8.59
-1.57
4.32
8.66
11.40
12.82
13.26
12.96
12.08
10.72
9.06
7.37
5.95
4.95
4.31
3.74
2.93
1.67
-0.06
-2.15
-4.48
-7.07
-10.11
-13.76
-18.02
-22.51
-26.55
-29.21
-29.61
-27.21
-22.04
-14.70
-6.31
1.77
8.28
12.40
13.89
13.12
10.86
8.05
5.52
3.86
3.35
3.93
5.26
6.76
7.73
7.55
5.92
3.03
-0.52
-3.90
-6.44
-7.90
-8.56
-8.97
-9.68
-10.85
-12.29
-13.52
-14.09
-13.79
-12.58
-10.46
-7.27
-2.74
3.29
10.54
18.11
24.68
28.93
30.13
28.40
24.72
20.49
17.01
15.05
14.74
15.64
16.94
17.73
17.14
14.59
9.94
3.61
-3.52
-10.43
-16.23
-20.51
-23.39
-25.38
-27.03
-28.72
-30.54
-32.19
-33.27
-33.32
-32.02
-29.22
-24.99
-19.55
-13.26
-6.62
-0.18
5.46
9.72
12.19
12.74
11.61
9.35
6.71
4.37
2.79
2.12
2.11
2.34
2.28
1.49
-0.28
-3.08
-6.67
-10.63
-14.47
-17.79
-20.46
-22.73
-25.20
-28.61
-33.52
-39.99
-47.39
-54.48
-59.80
-62.10
-60.88
-56.55
-50.30
-43.70
-38.23
-34.91
-34.07
-35.33
-37.68
-39.62
-39.57
-36.32
-29.48
-19.77
-8.75
1.77
10.45
16.93
21.75
25.87
30.12
34.75
39.50
43.99
48.00
51.58
54.88
57.82
60.04
61.03
60.38
58.09
54.59
50.56
46.65
43.37
41.02
39.82
39.92
41.34
43.89
47.13
50.49
53.49
55.90
57.78
59.25
60.29
60.61
59.83
57.78
54.64
50.94
47.30
44.18
41.62
39.30
36.74
33.49
29.39
24.59
19.54
14.80
10.85
7.95
5.91
4.14
1.75
-2.18
-8.24
-16.45
-26.10
-35.88
-44.16
-49.44
-50.80
-48.10
-42.07
-34.03
-25.50
-17.85
-11.96
-8.19
-6.47
-6.49
-7.82
-10.01
-12.67
-15.37
-17.69
-19.25
-19.84
-19.46
-18.38
-16.99
-15.66
-14.55
-13.55
-12.43
-11.04
-9.49
-8.16
-7.62
-8.36
-10.67
-14.48
-19.38
-24.63
-29.31
-32.44
-33.20
-31.17
-26.49
-19.83
-12.19
-4.61
2.08
7.39
11.12
13.26
13.88
13.17
11.49
9.31
7.21
5.71
5.14
5.47
6.37
7.33
7.84
7.57
6.51
4.90
3.06
1.31
-0.32
-1.98
-3.99
-6.63
-9.98
-13.84
-17.70
-20.86
-22.57
-22.31
-19.82
-15.28
-9.24
-2.44
4.29
10.27
14.97
18.11
19.61
19.56
18.31
16.35
14.29
12.64
11.67
11.37
11.50
11.76
11.91
11.88
11.70
11.39
10.83
9.86
8.25
5.91
2.86
-0.77
-4.83
-9.13
-13.42
-17.30
-20.19
-21.41
-20.38
-16.91
-11.30
-4.35
2.92
9.50
14.66
18.06
19.73
19.92
19.00
17.39
15.46
13.55
11.94
10.79
10.15
9.98
10.13
10.43
10.65
10.60
10.18
9.34
8.14
6.60
4.69
2.25
-0.88
-4.74
-9.08
-13.33
-16.69
-18.30
-17.58
-14.41
-9.12
-2.51
4.43
10.71
15.55
18.48
19.39
18.46
16.13
12.99
9.65
6.66
4.40
2.98
2.28
2.02
1.84
1.43
0.60
-0.74
-2.52
-4.63
-6.89
-9.20
-11.59
-14.20
-17.20
-20.64
-24.23
-27.30
-28.97
-28.41
-25.23
-19.69
-12.65
-5.26
1.38
6.50
9.82
11.36
11.40
10.27
8.37
6.16
4.14
2.72
2.11
2.23
2.73
3.12
3.00
2.20
0.80
-0.96
-2.84
-4.75
-6.80
-9.26
-12.40
-16.25
-20.43
-24.16
-26.36
-26.04
-22.64
-16.36
-8.14
0.60
8.40
14.22
17.58
18.62
17.78
15.69
12.92
10.00
7.37
5.35
4.13
3.71
3.89
4.35
4.73
4.73
4.12
2.84
0.86
-1.79
-5.11
-9.09
-13.61
-18.33
-22.60
-25.54
-26.27
-24.21
-19.34
-12.27
-4.12
3.82
10.45
15.15
17.77
18.64
18.27
17.22
15.89
14.50
13.15
11.85
10.67
9.73
9.11
8.79
8.57
8.12
7.08
5.26
2.63
-0.68
-4.61
-9.11
-14.15
-19.45
-24.37
-27.90
-28.95
-26.81
-21.43
-13.60
-4.65
3.94
11.00
15.91
18.62
19.48
19.06
18.01
16.86
16.01
15.67
15.85
16.39
17.08
17.73
18.17
18.23
17.73
16.50
14.42
11.51
7.87
3.62
-1.19
-6.49
-12.07
-17.38
-21.51
-23.44
-22.39
-18.27
-11.76
-4.10
3.30
9.36
13.54
15.81
16.45
15.81
14.29
12.28
10.19
8.43
7.22
6.59
6.34
6.15
5.77
5.04
3.97
2.66
1.19
-0.43
-2.31
-4.68
-7.74
-11.57
-15.94
-20.24
-23.57
-24.92
-23.57
-19.36
-12.81
-4.94
2.99
9.86
14.96
18.01
19.09
18.56
16.87
14.51
11.97
9.70
8.04
7.20
7.21
7.92
9.09
10.39
11.52
12.25
12.47
12.15
11.35
10.12
8.53
6.66
4.74
3.18
2.65
3.92
7.67
14.24
23.49
34.73
46.90
58.70
68.87
76.31
80.28
80.48
77.13
70.94
62.87
54.06
45.55
38.26
32.77
29.31
27.48
26.29
24.23
19.59
10.99
-2.20
-19.45
-39.19
-59.15
-77.01
-90.82
-99.37
-102.21
-99.69
-92.76
-82.74
-71.08
-59.00
-47.40
-36.79
-27.55
-20.05
-14.80
-12.35
-12.97
-16.38
-21.72
-27.67
-32.96
-36.75
-38.81
-39.34
-38.71
-37.27
-35.22
-32.70
-29.88
-26.95
-24.16
-21.60
-19.23
-16.95
-14.84
-13.37
-13.35
-15.61
-20.53
-27.54
-35.02
-40.66
-42.22
-38.29
-28.82
-15.06
0.90
16.82
30.90
42.00
49.63
53.70
54.52
52.74
49.33
45.45
42.18
40.11
39.17
38.73
37.83
35.67
31.89
26.68
20.69
14.75
9.59
5.70
3.15
1.62
0.46
-1.02
-3.31
-6.35
-9.54
-11.82
-12.15
-9.89
-5.14
1.24
7.97
13.81
17.93
20.13
20.70
20.14
18.86
17.08
14.95
12.73
10.81
9.62
9.38
9.86
10.47
10.45
9.30
6.99
4.00
1.01
-1.41
-3.12
-4.41
-5.86
-8.05
-11.28
-15.46
-20.02
-24.03
-26.43
-26.30
-23.16
-17.17
-9.12
-0.23
8.16
14.97
19.65
22.13
22.71
21.83
19.94
17.44
14.76
12.36
10.69
10.00
10.20
10.90
11.48
11.38
10.37
8.57
6.39
4.23
2.36
0.75
-0.81
-2.62
-4.94
-7.90
-11.52
-15.61
-19.78
-23.36
-25.51
-25.39
-22.47
-16.80
-9.11
-0.62
7.28
13.49
17.42
19.04
18.73
17.05
14.57
11.76
9.06
6.89
5.64
5.55
6.58
8.37
10.30
11.73
12.21
11.62
10.20
8.37
6.49
4.70
2.91
0.84
-1.79
-5.14
-9.14
-13.44
-17.41
-20.25
-21.19
-19.69
-15.69
-9.68
-2.52
4.77
11.32
16.52
20.04
21.71
21.55
19.74
16.77
13.33
10.20
8.03
7.09
7.21
7.97
8.76
9.09
8.67
7.42
5.49
3.10
0.47
-2.29
-5.17
-8.32
-11.91
-16.05
-20.65
-25.36
-29.53
-32.35
-33.05
-31.15
-26.69
-20.25
-12.87
-5.67
0.36
4.64
7.01
7.64
6.88
5.15
2.95
0.79
-0.84
-1.60
-1.40
-0.44
0.87
2.02
2.57
2.29
1.19
-0.53
-2.53
-4.49
-6.28
-8.01
-9.99
-12.60
-16.05
-20.26
-24.65
-28.37
-30.45
-30.10
-27.04
-21.53
-14.39
-6.67
0.54
6.34
10.21
11.99
11.86
10.30
7.90
5.29
3.01
1.39
0.54
0.43
0.91
1.75
2.66
3.33
3.47
2.93
1.73
0.07
-1.76
-3.59
-5.45
-7.60
-10.35
-13.81
-17.74
-21.42
-23.89
-24.19
-21.80
-16.82
-9.99
-2.46
4.57
10.19
13.94
15.81
16.04
15.03
13.18
10.91
8.62
6.74
5.59
5.30
5.73
6.50
7.10
7.12
6.38
4.95
3.13
1.22
-0.58
-2.33
-4.21
-6.52
-9.38
-12.67
-15.93
-18.47
-19.51
-18.45
-15.08
-9.73
-3.15
3.65
9.64
14.11
16.72
17.49
16.72
14.86
12.43
9.92
7.77
6.31
5.63
5.65
6.05
6.44
6.42
5.77
4.45
2.64
0.61
-1.41
-3.30
-5.17
-7.25
-9.79
-12.82
-16.09
-19.02
-20.85
-20.83
-18.54
-14.01
-7.84
-0.98
5.44
10.41
13.29
13.90
12.56
9.93
6.77
3.81
1.55
0.19
-0.34
-0.26
0.11
0.52
0.78
0.77
0.40
-0.39
-1.67
-3.45
-5.72
-8.46
-11.62
-15.09
-18.59
-21.67
-23.67
-23.89
-21.88
-17.62
-11.68
-5.02
1.26
6.25
9.50
11.00
11.04
10.10
8.61
6.96
5.43
4.23
3.48
3.19
3.29
3.61
3.96
4.14
3.94
3.22
1.90
-0.03
-2.53
-5.56
-9.09
-13.00
-17.02
-20.56
-22.82
-22.97
-20.50
-15.52
-8.82
-1.61
4.87
9.73
12.59
13.61
13.20
11.89
10.20
8.54
7.20
6.30
5.77
5.46
5.18
4.80
4.30
3.68
2.91
1.89
0.49
-1.37
-3.71
-6.46
-9.51
-12.69
-15.71
-18.08
-19.21
-18.49
-15.58
-10.62
-4.30
2.29
8.01
11.99
13.88
13.87
12.50
10.46
8.37
6.62
5.43
4.78
4.60
4.73
4.98
5.16
5.09
4.63
3.72
2.41
0.75
-1.18
-3.41
-5.97
-8.91
-12.06
-15.03
-17.17
-17.75
-16.22
-12.48
-6.98
-0.64
5.48
10.52
13.95
15.71
15.98
15.09
13.47
11.56
9.84
8.69
8.32
8.65
9.33
9.98
10.26
10.05
9.43
8.55
7.54
6.40
5.06
3.43
1.43
-0.94
-3.54
-6.11
-8.15
-9.12
-8.55
-6.25
-2.39
2.50
7.67
12.35
15.91
17.96
18.39
17.43
15.53
13.25
11.20
9.73
8.93
8.62
8.52
8.35
7.98
7.31
6.33
4.99
3.28
1.27
-0.89
-3.04
-5.11
-7.22
-9.59
-12.40
-15.57
-18.62
-20.77
-21.18
-19.37
-15.37
-9.87
-3.90
1.42
5.31
7.40
7.81
6.91
5.15
3.02
0.90
-0.89
-2.13
-2.71
-2.67
-2.21
-1.65
-1.30
-1.40
-2.04
-3.21
-4.77
-6.62
-8.65
-10.86
-13.31
-16.00
-18.72
-21.03
-22.24
-21.68
-18.94
-14.12
-7.91
-1.37
4.37
8.50
10.68
11.12
10.37
9.06
7.68
6.48
5.50
4.66
3.92
3.35
3.07
3.18
3.58
3.99
4.03
3.40
1.98
-0.14
-2.78
-5.76
-9.03
-12.51
-15.99
-18.97
-20.73
-20.56
-18.05
-13.36
-7.26
-0.85
4.80
8.96
11.45
12.50
12.53
11.92
10.83
9.35
7.59
5.83
4.50
3.94
4.22
5.01
5.74
5.89
5.21
3.81
2.04
0.24
-1.52
-3.46
-5.93
-9.14
-12.89
-16.57
-19.28
-20.13
-18.62
-14.80
-9.29
-3.05
2.87
7.67
10.92
12.61
13.05
12.62
11.72
10.66
9.65
8.83
8.27
7.98
7.88
7.81
7.61
7.19
6.52
5.67
4.69
3.57
2.19
0.36
-2.11
-5.24
-8.85
-12.47
-15.45
-17.11
-16.85
-14.38
-9.87
-3.97
2.35
8.05
12.31
14.75
15.53
15.10
14.05
12.84
11.65
10.54
9.50
8.60
8.02
7.90
8.21
8.73
9.09
8.89
7.94
6.26
4.08
1.62
-0.95
-3.66
-6.67
-9.98
-13.40
-16.43
-18.34
-18.45
-16.39
-12.29
-6.80
-0.89
4.45
8.55
11.15
12.39
12.64
12.25
11.49
10.49
9.39
8.37
7.64
7.40
7.64
8.14
8.58
8.62
8.08
7.00
5.59
4.08
2.56
0.95
-0.98
-3.53
-6.76
-10.44
-13.98
-16.56
-17.41
-16.05
-12.53
-7.38
-1.50
4.17
8.88
12.15
13.84
14.00
12.85
10.76
8.21
5.81
4.05
3.24
3.33
3.95
4.63
4.97
4.81
4.21
3.30
2.18
0.86
-0.76
-2.80
-5.29
-8.11
-11.05
-13.68
-15.47
-15.80
-14.18
-10.49
-5.10
1.19
7.32
12.37
15.72
17.21
17.05
15.61
13.34
10.69
8.10
5.97
4.58
4.05
4.21
4.71
5.10
5.00
4.21
2.74
0.78
-1.41
-3.67
-5.99
-8.55
-11.49
-14.77
-18.00
-20.45
-21.25
-19.73
-15.76
-9.82
-2.89
3.85
9.39
13.14
14.96
15.05
13.85
11.83
9.50
7.31
5.60
4.59
4.29
4.50
4.92
5.22
5.17
4.69
3.85
2.77
1.57
0.22
-1.44
-3.60
-6.37
-9.56
-12.68
-14.94
-15.56
-14.00
-10.25
-4.86
1.24
6.98
11.52
14.39
15.59
15.40
14.23
12.49
10.52
8.61
6.96
5.71
4.90
4.41
4.06
3.62
2.92
1.91
0.64
-0.76
-2.26
-3.91
-5.87
-8.27
-11.09
-14.05
-16.53
-17.80
-17.21
-14.42
-9.63
-3.49
3.03
8.93
13.46
16.21
17.17
16.60
14.91
12.59
10.10
7.84
6.06
4.88
4.25
4.00
3.87
3.63
3.13
2.29
1.15
-0.26
-1.87
-3.74
-5.92
-8.40
-11.03
-13.39
-14.90
-14.96
-13.21
-9.67
-4.88
0.37
5.22
8.99
11.30
12.13
11.66
10.19
8.11
5.78
3.59
1.85
0.78
0.42
0.63
1.15
1.64
1.83
1.53
0.74
-0.42
-1.85
-3.46
-5.32
-7.55
-10.17
-12.98
-15.48
-16.96
-16.81
-14.73
-10.92
-6.04
-0.98
3.46
6.75
8.76
9.61
9.55
8.86
7.76
6.45
5.14
4.07
3.45
3.36
3.71
4.24
4.58
4.47
3.75
2.46
0.73
-1.32
-3.66
-6.29
-9.15
-11.94
-14.09
-14.91
-13.76
-10.36
-4.93
1.85
9.00
15.54
20.72
24.15
25.84
26.10
25.40
24.21
22.91
21.71
20.72
20.01
19.62
19.57
19.77
20.03
20.00
19.32
17.73
15.08
11.34
6.43
0.27
-7.16
-15.60
-24.29
-32.02
-37.41
-39.42
-37.75
-33.06
-26.67
-20.17
-14.87
-11.46
-10.00
-10.08
-11.15
-12.77
-14.64
-16.57
-18.34
-19.66
-20.23
-19.85
-18.57
-16.69
-14.67
-12.97
-11.85
-11.31
-11.22
-11.36
-11.63
-11.99
-12.37
-12.56
-12.20
-10.85
-8.21
-4.31
0.47
5.43
9.76
12.79
14.14
13.79
12.05
9.53
6.86
4.66
3.33
2.96
3.41
4.28
5.11
5.51
5.28
4.42
3.22
2.05
1.25
0.92
0.84
0.45
-0.78
-3.09
-6.13
-8.98
-10.50
-9.80
-6.66
-1.63
4.19
9.66
13.94
16.70
18.04
18.27
17.65
16.45
14.86
13.12
11.53
10.31
9.55
9.16
8.92
8.58
8.00
7.16
6.15
5.13
4.11
3.03
1.59
-0.57
-3.74
-7.95
-12.82
-17.54
-21.03
-22.28
-20.71
-16.43
-10.20
-3.30
3.00
7.71
10.41
11.18
10.45
8.75
6.64
4.56
2.85
1.80
1.49
1.85
2.59
3.27
3.50
3.02
1.81
0.05
-2.04
-4.22
-6.42
-8.63
-10.95
-13.40
-15.93
-18.24
-19.88
-20.30
-19.04
-15.95
-11.34
-5.92
-0.57
3.87
6.92
8.49
8.77
8.11
6.86
5.29
3.65
2.18
1.05
0.37
0.13
0.20
0.40
0.53
0.52
0.27
-0.25
-1.07
-2.24
-3.84
-5.93
-8.52
-11.51
-14.61
-17.29
-18.86
-18.65
-16.28
-11.83
-5.97
0.32
5.97
10.21
12.69
13.50
12.98
11.62
9.83
7.97
6.30
5.01
4.23
3.99
4.16
4.48
4.62
4.29
3.34
1.81
-0.09
-2.08
-3.93
-5.55
-7.08
-8.78
-10.92
-13.53
-16.31
-18.61
-19.62
-18.69
-15.59
-10.72
-4.94
0.71
5.41
8.77
10.87
12.05
12.63
12.81
12.64
12.20
11.70
11.44
11.68
12.48
13.57
14.47
14.68
13.92
12.26
10.01
7.59
5.25
3.02
0.66
-2.13
-5.58
-9.66
-14.05
-18.16
-21.25
-22.64
-21.93
-19.15
-14.77
-9.62
-4.58
-0.37
2.66
4.50
5.39
5.64
5.44
4.94
4.24
3.54
3.09
3.11
3.64
4.46
5.15
5.27
4.60
3.21
1.48
-0.18
-1.54
-2.68
-3.95
-5.75
-8.35
-11.68
-15.30
-18.52
-20.56
-20.76
-18.79
-14.74
-9.16
-2.87
3.16
8.13
11.56
13.33
13.62
12.81
11.35
9.65
8.10
6.98
6.44
6.47
6.92
7.53
8.00
8.13
7.81
7.01
5.77
4.14
2.17
-0.16
-2.93
-6.22
-10.10
-14.44
-18.76
-22.28
-24.04
-23.28
-19.76
-13.94
-6.96
-0.15
5.32
8.86
10.52
10.75
10.09
8.95
7.53
5.93
4.26
2.72
1.54
0.86
0.63
0.63
0.56
0.16
-0.73
-2.12
-3.98
-6.21
-8.74
-11.49
-14.43
-17.49
-20.54
-23.29
-25.30
-25.99
-24.84
-21.67
-16.73
-10.81
-4.95
-0.22
2.68
3.58
2.78
0.93
-1.23
-3.08
-4.28
-4.72
-4.55
-4.05
-3.58
-3.50
-4.15
-5.66
-7.79
-9.94
-11.16
-10.60
-7.93
-3.66
0.87
3.93
4.18
1.28
-3.82
-9.22
-12.85
-13.35
-10.49
-5.13
1.37
7.83
13.68
19.00
24.10
29.16
33.96
38.04
41.00
42.81
43.87
44.81
46.09
47.72
49.24
49.87
48.95
46.20
41.85
36.45
30.49
24.12
17.00
8.60
-1.29
-12.23
-22.94
-31.75
-37.24
-38.79
-36.88
-32.73
-27.80
-23.16
-19.32
-16.24
-13.66
-11.38
-9.41
-7.86
-6.78
-6.13
-5.79
-5.68
-5.81
-6.29
-7.23
-8.61
-10.26
-11.92
-13.37
-14.56
-15.73
-17.34
-19.89
-23.70
-28.57
-33.69
-37.80
-39.53
-37.96
-33.00
-25.46
-16.77
-8.39
-1.35
4.01
7.96
11.00
13.49
15.51
16.89
17.42
17.07
16.00
14.50
12.84
11.12
9.28
7.14
4.56
1.51
-1.91
-5.61
-9.62
-14.09
-19.17
-24.79
-30.45
-35.19
-37.82
-37.34
-33.37
-26.33
-17.36
-7.98
0.44
7.03
11.55
14.31
15.83
16.57
16.77
16.48
15.69
14.55
13.29
12.21
11.50
11.15
10.97
10.67
10.08
9.14
7.93
6.53
4.86
2.73
-0.03
-3.38
-6.84
-9.57
-10.59
-9.12
-4.95
1.48
9.16
16.89
23.62
28.75
32.09
33.80
34.14
33.38
31.79
29.66
27.34
