1574673055.00
64.000000
-0.00
-0.00
-0.00
-0.00
-0.00
-0.00
-0.00
-0.00
-0.00
-0.00
0.00
0.01
0.01
-0.00
-0.03
-0.05
-0.05
0.00
0.13
0.36
0.66
1.01
1.37
1.72
2.06
2.40
2.79
3.24
3.80
4.42
5.06
5.66
6.20
6.68
7.15
7.68
8.31
9.14
10.09
11.04
11.88
12.56
13.14
13.76
14.65
15.96
17.91
20.32
22.90
25.38
27.58
29.57
31.68
34.32
37.81
42.54
48.15
54.10
59.83
64.97
69.58
74.14
79.34
85.71
93.76
103.00
112.62
121.73
129.77
136.75
143.30
150.75
157.77
166.64
177.95
191.79
206.97
220.57
228.25
225.36
208.53
176.87
132.76
80.05
23.07
-34.94
-92.44
-149.16
-205.23
-260.37
-313.74
-363.87
-409.83
-450.91
-486.50
-515.74
-537.23
-549.22
-549.96
-538.37
-514.21
-478.67
-433.88
-382.45
-327.02
-269.84
-212.63
-156.66
-102.95
-52.37
-5.90
35.58
71.43
101.35
125.50
144.38
158.69
169.15
176.37
180.75
182.57
182.07
179.50
175.23
169.65
163.18
156.15
148.82
141.32
133.73
126.08
118.41
110.80
103.30
95.99
88.91
82.10
75.56
69.32
63.37
57.72
52.39
47.37
42.68
38.30
34.23
30.47
27.00
23.83
20.94
18.33
15.99
13.93
12.13
10.58
9.27
8.19
7.31
6.62
6.11
5.76
5.55
5.48
5.52
5.67
5.92
6.25
6.67
7.16
7.73
8.36
9.05
9.81
10.62
11.50
12.43
13.42
14.47
15.57
16.75
18.01
19.34
20.74
22.19
23.67
25.12
26.47
27.61
28.43
28.79
28.57
27.66
26.00
23.55
20.37
16.48
12.07
7.29
2.36
-2.48
-7.02
-11.07
-14.48
-17.15
-19.05
-20.18
-20.59
-20.39
-19.68
-18.57
-17.19
-15.58
-13.82
-11.93
-9.92
-7.81
-5.63
-3.35
-0.99
1.46
3.99
6.58
9.23
11.97
14.73
17.41
20.06
22.65
25.28
27.98
30.86
34.04
37.68
41.68
46.00
50.59
55.43
60.44
65.61
70.90
76.34
82.04
87.75
93.41
99.02
104.62
110.28
116.11
122.19
128.66
135.61
142.69
149.57
155.94
161.45
165.66
168.06
167.86
163.96
158.29
151.41
143.66
135.33
126.61
117.76
109.00
100.57
92.70
85.65
79.11
72.90
66.88
60.93
55.03
49.15
43.39
37.88
32.78
27.90
23.13
18.44
13.86
9.47
5.43
1.90
-0.99
-3.23
-5.14
-7.09
-9.44
-12.40
-16.03
-20.10
-24.35
-28.50
-32.43
-36.36
-40.65
-45.61
-51.44
-57.95
-64.77
-71.40
-77.52
-83.23
-89.07
-95.91
-104.52
-115.30
-128.06
-142.13
-156.75
-171.17
-185.13
-198.82
-212.59
-227.12
-243.17
-261.72
-283.56
-308.54
-335.03
-359.61
-377.85
-385.68
-381.00
-364.59
-339.51
-309.98
-279.61
-250.38
-222.76
-196.48
-171.57
-148.77
-129.11
-113.13
-100.32
-89.26
-78.33
-66.52
-53.92
-41.50
-30.74
-22.41
-16.36
-11.57
-6.51
-0.26
7.09
14.47
20.49
24.37
26.39
27.79
29.92
33.55
38.40
43.14
46.51
47.68
46.81
44.85
42.79
41.35
40.50
39.89
39.09
38.10
37.32
37.27
38.35
40.40
42.68
44.27
44.13
41.93
38.02
33.25
28.81
25.44
23.30
21.98
20.95
20.00
19.42
19.85
21.66
24.70
28.26
31.08
32.35
31.81
30.12
28.49
27.86
28.49
29.63
29.98
28.45
24.81
19.87
15.07
11.74
10.44
10.65
11.34
11.30
10.12
8.12
6.05
4.70
4.12
3.69
2.41
-0.32
-4.24
-8.24
-10.74
-10.72
-8.05
-3.66
0.68
3.64
4.52
3.76
2.56
2.01
2.59
3.88
4.97
5.03
3.94
2.35
1.37
1.98
4.54
8.44
12.59
15.70
17.18
17.20
16.51
16.08
16.28
16.84
17.04
16.31
14.77
13.20
12.71
13.92
16.59
19.66
21.49
21.11
18.34
14.07
9.82
6.70
5.16
4.70
4.44
3.72
2.48
1.28
0.81
1.52
3.18
4.93
5.86
5.21
3.03
0.08
-2.62
-3.98
-3.68
-2.10
-0.16
1.31
2.09
2.71
4.09
6.88
10.91
15.23
18.28
19.11
17.63
14.80
12.22
11.03
11.45
12.63
13.33
12.68
10.83
8.85
8.08
9.42
12.74
16.76
19.78
20.12
17.23
11.63
4.75
-1.52
-5.89
-7.86
-7.79
-6.39
-4.18
-1.20
2.77
7.69
12.96
17.39
19.35
17.97
13.33
6.65
-0.12
-5.42
-8.55
-9.97
-10.72
-11.77
-13.40
-15.06
-15.85
-14.98
-12.40
-8.90
-5.59
-3.59
-3.22
-3.93
-4.81
-4.81
-3.72
-2.08
-0.96
-1.13
-2.50
-3.99
-4.12
-1.94
2.39
7.53
11.33
12.26
9.91
5.28
0.34
-3.21
-4.55
-4.19
-3.33
-3.09
-3.81
-4.93
-5.47
-4.68
-2.62
-0.37
0.73
-0.53
-4.29
-9.59
-14.90
-18.62
-20.05
-19.47
-17.90
-16.32
-15.15
-14.05
-12.28
-9.39
-5.64
-1.94
0.32
0.48
-1.31
-3.92
-5.67
-5.40
-2.79
1.37
5.84
9.59
12.40
14.83
17.87
22.27
28.08
34.33
39.72
42.91
43.40
41.72
38.92
36.30
34.35
32.72
30.50
26.93
22.08
16.93
12.89
10.98
11.15
12.36
12.85
11.36
7.57
2.22
-3.19
-7.52
-10.24
-11.78
-12.92
-14.26
-15.82
-17.01
-17.07
-15.51
-12.51
-8.99
-6.05
-4.78
-5.47
-7.63
-10.43
-12.86
-14.53
-15.58
-16.54
-17.70
-18.79
-19.05
-17.64
-14.24
-9.50
-4.68
-1.45
-0.71
-2.37
-5.42
-8.32
-10.10
-10.61
-10.68
-11.33
-13.06
-15.44
-17.28
-17.30
-14.82
-10.19
-4.82
-0.33
1.81
1.18
-1.58
-5.09
-7.48
-7.38
-4.14
1.92
9.89
18.75
27.77
36.65
45.23
53.15
59.66
63.44
63.63
60.07
53.69
46.35
39.78
34.98
31.83
29.48
27.02
24.18
21.35
19.20
18.16
17.97
17.64
16.19
12.89
7.93
2.23
-3.17
-7.41
-10.45
-12.84
-15.25
-17.92
-20.34
-21.49
-20.43
-16.97
-11.89
-6.63
-2.97
-1.80
-3.10
-5.89
-8.60
-10.14
-10.18
-9.30
-8.41
-8.19
-8.59
-8.89
-8.15
-5.83
-2.21
1.46
3.86
3.95
1.88
-1.23
-3.96
-5.17
-4.85
-3.87
-3.49
-4.42
-6.41
-8.46
-9.38
-8.66
-6.79
-4.93
-4.49
-5.97
-8.93
-12.19
-14.36
-14.86
-14.05
-12.96
-12.59
-13.21
-14.22
-14.62
-13.62
-11.19
-8.08
-5.66
-4.91
-6.24
-9.07
-12.21
-14.55
-15.35
-14.75
-13.42
-12.21
-11.44
-10.74
-9.21
-6.03
-1.07
4.78
10.05
12.88
12.28
8.18
1.39
-6.61
-14.68
-22.15
-28.86
-34.78
-39.65
-42.85
-43.62
-41.52
-36.50
-29.10
-20.34
-11.13
-2.29
5.83
13.25
19.91
25.69
30.00
32.04
31.12
27.15
20.88
13.78
7.79
4.46
4.44
7.45
11.99
16.52
19.73
20.99
20.56
18.87
16.34
13.10
9.26
5.12
1.43
-0.89
-1.16
0.58
3.48
5.77
5.74
2.11
-5.25
-15.31
-26.37
-36.46
-44.24
-49.06
-50.93
-50.07
-46.39
-39.60
-29.39
-16.14
-1.17
13.66
26.42
36.53
44.78
52.92
62.70
74.35
86.26
95.62
99.94
98.62
93.45
87.77
84.68
85.26
87.95
89.11
85.20
74.51
58.35
40.59
25.68
16.85
14.68
17.43
22.29
27.07
31.05
34.83
39.22
44.26
48.76
51.04
49.58
44.43
36.98
29.55
24.53
23.20
25.57
30.40
35.87
40.23
42.26
41.45
37.84
31.81
23.95
14.72
4.96
-4.38
-12.00
-16.49
-17.08
-13.84
-8.14
-2.13
2.01
2.88
0.38
-4.35
-9.59
-13.74
-16.00
-16.29
-15.19
-13.07
-9.93
-5.44
0.85
8.76
17.49
25.69
32.15
36.35
38.74
40.45
42.64
46.12
51.19
57.71
65.83
75.91
88.45
103.58
120.28
136.51
149.35
156.09
155.07
146.17
130.75
110.89
88.54
64.80
39.58
12.02
-19.15
-54.23
-92.17
-130.32
-164.85
-192.41
-210.96
-220.59
-223.07
-220.83
-215.77
-208.86
-200.19
-189.76
-178.03
-166.43
-156.64
-150.10
-147.42
-147.90
-150.14
-152.18
-152.40
-149.86
-144.55
-137.32
-129.43
-122.04
-115.68
-110.02
-104.18
-96.98
-87.81
-76.60
-64.08
-51.50
-39.96
-30.43
-22.96
-16.37
-7.95
5.94
28.59
61.07
100.71
141.10
173.76
190.83
188.14
166.51
131.15
89.63
48.94
13.85
-13.61
-33.26
-45.29
-49.28
-44.05
-28.73
-4.22
25.70
54.57
75.28
82.71
76.43
61.07
44.26
33.12
30.62
34.52
38.93
38.13
29.83
16.26
2.64
-6.12
-7.92
-4.24
1.12
4.75
5.49
5.00
6.57
12.88
24.44
38.97
52.52
61.30
63.26
58.84
50.32
40.49
31.24
22.73
13.85
2.84
-11.19
-27.75
-44.97
-60.11
-70.99
-76.51
-77.05
-73.91
-68.56
-61.93
-54.27
-45.46
-35.57
-25.19
-15.70
-8.37
-4.03
-2.56
-2.78
-3.41
-3.49
-3.26
-3.97
-7.39
-14.86
-26.42
-40.46
-54.00
-63.59
-66.54
-61.75
-50.18
-34.08
-16.15
1.30
17.13
30.91
42.75
52.90
61.82
70.21
78.98
88.72
99.15
108.83
115.53
117.00
112.37
102.53
89.99
77.96
68.83
63.53
61.39
60.90
60.53
59.25
56.54
52.11
45.74
37.25
26.78
14.95
2.69
-9.03
-19.64
-29.19
-38.02
-46.47
-54.34
-60.89
-65.13
-66.37
-64.61
-60.75
-56.25
-52.74
-51.56
-53.55
-58.83
-66.76
-76.07
-84.86
-91.17
-93.28
-90.35
-82.65
-71.55
-58.94
-46.61
-35.60
-26.14
-17.96
-10.97
-5.77
-3.50
-5.40
-11.85
-21.87
-33.25
-43.29
-49.87
-52.23
-50.99
-47.60
-43.63
-40.21
-38.02
-37.21
-37.27
-36.63
-32.35
-20.57
2.14
36.77
80.46
126.61
166.72
193.45
203.03
196.22
177.22
151.40
123.26
95.49
69.27
45.41
25.05
9.79
1.03
-0.86
2.96
10.01
17.41
22.85
25.45
25.89
25.85
26.94
29.72
33.36
36.11
36.35
33.57
28.79
24.01
21.27
21.64
24.93
30.06
35.79
41.29
46.17
50.12
52.39
51.75
46.95
37.47
24.12
9.00
-5.10
-15.76
-21.84
-23.75
-23.07
-21.83
-21.63
-23.28
-26.81
-31.71
-37.36
-43.14
-48.48
-52.72
-55.23
-55.61
-53.86
-50.56
-46.69
-43.34
-41.32
-40.84
-41.47
-42.18
-41.79
-39.28
-34.21
-26.99
-18.78
-11.34
-6.34
-4.88
-7.09
-12.06
-18.29
-24.21
-28.72
-31.31
-31.89
-30.48
-27.03
-21.38
-13.48
-3.70
7.11
17.73
26.83
33.33
36.50
36.00
31.67
23.66
12.44
-0.86
-14.42
-25.94
-33.23
-35.05
-31.60
-24.58
-16.52
-9.98
-6.52
-6.51
-9.25
-13.51
-18.24
-22.76
-26.87
-30.54
-33.67
-36.10
-37.60
-38.03
-37.45
-35.98
-33.75
-30.78
-26.96
-22.13
-16.20
-9.31
-1.90
5.45
12.04
17.28
20.67
21.95
21.17
18.67
15.12
11.40
8.37
6.66
6.55
8.01
10.76
14.48
18.80
23.31
27.54
30.86
32.71
32.72
30.74
26.92
21.49
14.70
6.83
-1.76
-10.50
-18.71
-25.68
-30.90
-34.19
-35.62
-35.48
-34.08
-31.79
-28.94
-25.91
-23.10
-20.91
-19.59
-19.20
-19.61
-20.41
-21.11
-21.29
-20.81
-19.95
-19.24
-19.21
-19.99
-21.16
-21.88
-21.20
-18.66
-14.45
-9.32
-4.12
0.51
4.37
7.56
10.27
12.58
14.44
15.77
16.62
17.13
17.40
17.50
17.29
16.65
15.56
14.19
12.94
12.19
12.15
12.70
13.46
13.96
13.80
12.89
11.40
9.69
8.13
6.94
6.14
5.63
5.21
4.71
4.01
3.11
2.12
1.19
0.56
0.45
0.95
2.03
3.41
4.71
5.50
5.54
4.84
3.70
2.52
1.65
1.25
1.25
1.46
1.62
1.63
1.44
1.22
1.15
1.48
2.43
4.06
6.26
8.69
10.92
12.64
13.76
14.44
14.90
15.35
15.71
15.85
15.57
14.79
13.55
11.97
10.10
7.94
5.39
2.40
-0.90
-4.30
-7.53
-10.45
-13.06
-15.52
-18.04
-20.67
-23.21
-25.22
-26.11
-25.43
-22.95
-18.74
-13.17
-6.68
0.25
7.26
14.09
20.55
26.58
32.10
37.06
41.35
44.76
47.07
48.08
47.81
46.47
44.46
42.15
39.72
37.07
33.95
30.00
24.89
18.49
10.86
2.25
-6.86
-15.83
-23.96
-30.73
-36.00
-39.99
-43.14
-45.80
-47.85
-48.87
-48.41
-46.51
-43.96
-42.08
-42.09
-44.41
-48.35
-52.40
-54.91
-54.85
-51.99
-46.72
-39.42
-30.18
-18.78
-5.18
10.05
25.46
39.13
49.26
54.83
55.91
53.51
49.19
44.40
40.26
37.24
35.42
34.62
34.60
35.25
36.38
37.80
39.18
40.10
40.22
39.38
37.66
35.38
32.84
30.29
27.72
25.03
22.00
18.38
14.03
8.91
3.19
-2.78
-8.55
-13.62
-17.68
-20.67
-22.74
-24.14
-25.02
-25.38
-25.07
-24.00
-22.35
-20.57
-19.33
-19.15
-20.15
-22.00
-23.99
-25.44
-25.85
-25.16
-23.48
-21.01
-17.89
-14.15
-9.94
-5.62
-1.76
1.03
2.46
2.66
2.19
1.81
2.02
2.94
4.22
5.38
6.02
6.13
6.04
6.16
6.81
7.85
8.85
9.35
9.24
8.89
8.94
9.87
11.58
13.38
14.26
13.29
10.30
5.83
0.82
-3.67
-7.19
-9.84
-12.18
-14.79
-17.84
-21.00
-23.65
-25.19
-25.42
-24.56
-23.28
-22.12
-21.43
-21.07
-20.56
-19.57
-17.96
-16.08
-14.47
-13.56
-13.30
-13.13
-12.25
-10.00
-6.35
-2.01
1.94
4.33
4.69
3.32
1.04
-1.07
-2.56
-3.55
-4.64
-6.40
-8.87
-11.44
-13.14
-13.24
-11.69
-9.16
-7.06
-6.50
-8.07
-11.47
-15.64
-19.49
-22.29
-24.04
-25.31
-26.73
-28.51
-30.30
-31.38
-31.11
-29.34
-26.61
-23.71
-21.58
-20.49
-20.23
-20.31
-20.10
-19.50
-18.68
-17.95
-17.31
-16.27
-14.05
-10.00
-4.15
2.59
8.68
12.17
11.83
7.34
-0.31
-9.03
-16.55
-20.94
-21.26
-17.61
-10.83
-1.85
8.48
19.67
31.31
42.79
53.07
61.03
65.57
66.34
63.66
58.34
51.51
43.97
36.27
28.80
21.95
16.36
12.61
11.08
11.46
12.77
13.70
12.90
9.82
4.74
-1.36
-7.21
-12.15
-16.24
-20.31
-25.23
-31.34
-38.01
-43.97
-47.84
-48.94
-47.65
-45.37
-43.79
-44.43
-47.79
-53.26
-59.16
-63.12
-62.97
-57.14
-45.33
-28.50
-8.52
12.34
32.09
49.36
63.38
73.78
80.05
81.69
78.27
69.91
57.80
44.05
31.31
21.80
16.46
14.46
13.54
11.07
5.45
-2.80
-10.79
-14.46
-10.20
3.13
23.68
47.10
67.99
81.64
84.51
74.82
52.74
21.02
-14.60
-46.26
-66.09
-69.22
-56.08
-32.31
-6.65
13.20
23.51
25.50
23.80
23.17
26.04
31.67
37.29
40.10
38.89
34.54
29.34
25.68
24.94
26.74
29.50
31.27
31.11
29.48
27.85
27.83
29.81
32.84
34.94
34.34
30.42
23.95
16.74
10.47
5.94
2.78
-0.32
-4.37
-9.66
-15.36
-19.85
-21.81
-20.73
-17.32
-13.06
-9.39
-7.12
-6.17
-5.88
-5.56
-4.82
-3.86
-2.90
-2.12
-1.26
0.06
2.05
4.61
7.07
8.66
8.86
7.74
6.06
4.88
5.14
7.12
10.29
13.62
15.82
16.22
14.80
12.13
9.20
6.62
4.59
2.77
0.65
-2.02
-5.03
-7.82
-9.80
-10.71
-10.74
-10.48
-10.38
-10.70
-11.07
-10.93
-9.88
-7.82
-5.31
-3.07
-1.67
-1.04
-0.56
0.62
3.12
6.83
10.98
14.50
16.42
16.67
15.92
15.34
16.16
18.82
22.82
26.92
29.69
30.19
28.42
25.32
22.59
21.91
24.54
30.53
38.81
46.89
51.68
50.09
39.92
20.86
-5.59
-36.05
-66.40
-92.70
-112.28
-124.23
-129.29
-129.29
-126.24
-121.40
-115.27
-107.34
-96.87
-83.45
-67.25
-49.51
-32.16
-17.50
-7.51
-3.13
-3.73
-7.11
-9.75
-7.80
1.82
20.06
45.52
74.47
102.38
125.45
141.65
151.13
155.19
155.22
151.96
145.54
136.20
124.91
113.39
103.42
95.74
89.76
83.52
75.27
64.22
51.03
37.55
25.36
15.19
6.55
-1.65
-10.14
-18.65
-26.06
-30.98
-32.58
-31.18
-28.27
-25.65
-24.89
-26.37
-29.46
-33.03
-35.98
-37.95
-39.20
-40.33
-41.69
-43.05
-43.75
-43.03
-40.62
-36.93
-32.88
-29.79
-28.28
-28.32
-29.14
-29.47
-28.54
-26.19
-23.14
-20.42
-18.73
-18.08
-17.77
-16.89
-14.89
-11.94
-9.00
-7.09
-6.88
-8.16
-9.94
-11.18
-11.17
-10.16
-9.05
-8.86
-10.05
-12.22
-14.33
-15.26
-14.56
-12.60
-10.33
-9.02
-9.19
-10.63
-12.47
-13.46
-12.95
-10.97
-8.30
-5.94
-4.55
-4.09
-3.99
-3.52
-2.35
-0.72
0.42
0.14
-2.10
-5.99
-10.39
-14.04
-15.94
-16.07
-15.14
-14.25
-14.06
-14.48
-14.70
-13.78
-11.31
-7.73
-4.14
-1.93
-1.62
-2.86
-4.48
-5.01
-3.83
-1.26
1.49
3.17
3.25
2.21
1.22
1.41
3.08
5.59
7.42
7.37
4.95
0.84
-3.46
-6.51
-7.44
-6.55
-4.92
-3.95
-4.61
-7.03
-10.52
-13.95
-16.40
-17.47
-17.36
-16.89
-16.64
-16.88
-17.37
-17.41
-16.61
-15.05
-13.35
-12.25
-12.08
-12.48
-12.60
-11.61
-9.28
-6.09
-3.32
-1.86
-2.10
-3.40
-4.39
-3.94
-1.50
2.36
6.40
9.26
10.27
9.59
8.23
7.28
7.45
8.54
9.67
9.56
7.49
3.48
-1.60
-6.41
-10.02
-12.20
-13.50
-14.63
-15.84
-16.67
-16.24
-13.82
-9.46
-4.10
0.53
3.13
3.10
1.08
-1.44
-3.06
-2.94
-1.37
0.72
2.29
2.93
3.02
3.55
5.46
9.05
13.75
18.39
21.51
22.42
21.12
18.49
15.76
13.72
12.60
11.89
11.04
9.82
8.59
8.10
8.85
10.78
13.09
14.39
13.76
10.96
6.76
2.69
-0.04
-0.85
-0.33
0.37
0.14
-1.37
-3.56
-5.23
-5.26
-3.24
0.22
3.94
6.45
6.99
5.50
2.67
-0.44
-3.14
-5.20
-6.95
-8.71
-10.48
-11.79
-11.96
-10.60
-7.99
-4.92
-2.73
-2.19
-3.48
-5.96
-8.40
-9.95
-10.31
-10.04
-10.11
-11.19
-13.27
-15.56
-16.87
-16.29
-13.69
-9.87
-6.08
-3.60
-2.85
-3.43
-4.36
-4.56
-3.64
-1.88
-0.11
1.04
1.46
1.81
3.10
5.99
10.46
15.63
20.04
22.62
22.95
21.51
19.40
17.48
16.01
14.54
12.23
8.56
3.63
-1.75
-6.54
-9.88
-11.45
-11.59
-11.00
-10.43
-10.31
-10.59
-10.95
-10.89
-10.15
-8.77
-7.07
-5.37
-3.90
-2.72
-1.72
-0.84
-0.05
0.58
0.88
0.84
0.51
-0.03
-0.78
-1.98
-4.06
-7.46
-12.44
-18.67
-25.37
-31.34
-35.47
-37.20
-36.54
-34.18
-31.04
-27.86
-24.94
-22.08
-18.76
-14.41
-8.69
-1.56
6.55
14.93
22.64
28.68
32.23
32.85
30.69
26.36
20.87
15.29
10.44
6.90
4.86
4.25
4.81
6.18
7.86
9.30
9.92
9.30
7.25
4.00
0.11
-3.74
-6.89
-9.15
-10.65
-11.87
-13.27
-14.95
-16.81
-18.59
-20.15
-21.39
-22.10
-21.89
-20.15
-16.63
-11.61
-6.12
-1.65
0.71
0.59
-1.28
-3.56
-5.08
-5.28
-4.55
-3.73
-3.50
-3.90
-4.27
-3.66
-1.45
2.26
6.45
9.88
11.37
10.75
8.77
6.67
5.77
6.52
8.36
10.10
10.70
9.92
8.60
8.15
9.70
13.38
18.16
22.04
23.43
21.61
17.25
12.05
7.68
5.04
3.85
3.10
1.79
-0.40
-2.97
-5.09
-6.19
-6.44
-6.83
-8.31
-11.50
-15.97
-20.55
-24.02
-25.51
-25.27
-24.28
-23.78
-24.39
-25.70
-26.47
-25.25
-21.37
-15.39
-9.07
-4.96
-4.81
-9.09
-16.33
-23.49
-27.39
-25.72
-18.18
-6.28
7.39
20.21
30.51
37.77
42.47
45.51
47.45
48.71
49.29
49.53
50.09
51.53
54.21
57.36
59.27
57.91
51.86
41.30
28.09
15.05
4.60
-2.29
-6.52
-10.42
-16.19
-25.10
-36.79
-49.56
-61.49
-71.18
-78.27
-83.17
-86.51
-88.62
-89.35
-88.36
-85.41
-80.72
-75.20
-69.76
-65.45
-62.74
-61.47
-61.24
-61.31
-61.30
-61.22
-61.44
-62.31
-63.77
-64.99
-64.43
-60.45
-51.99
-39.07
-23.25
-6.87
7.42
17.61
22.97
23.61
20.23
13.36
3.34
-9.28
-22.85
-34.09
-38.86
-33.96
-19.80
-2.00
9.82
5.62
-20.25
-66.12
-123.77
-182.21
-232.42
-270.13
-295.34
-309.38
-312.28
-301.92
-275.47
-231.78
-173.08
-104.94
-35.36
26.91
73.83
99.43
101.55
82.57
49.23
10.81
-23.79
-48.66
-62.00
-65.44
-62.36
-56.12
-49.17
-42.89
-37.76
-33.38
-28.41
-20.84
-8.69
9.17
32.53
59.75
88.26
115.33
138.80
157.64
172.19
183.78
193.86
202.72
208.51
207.22
194.10
165.77
122.53
69.30
14.46
-32.72
-65.17
-80.06
-78.87
-65.84
-45.83
-22.90
-0.01
20.35
35.78
44.24
45.01
39.64
31.59
25.21
24.04
29.95
43.01
62.30
86.86
115.92
148.62
183.77
219.85
255.83
291.97
330.19
373.12
422.02
474.74
524.96
563.40
580.88
572.11
537.73
483.97
419.71
352.85
287.84
225.90
166.73
110.66
59.35
15.01
-20.72
-47.47
-65.59
-75.54
-77.50
-72.40
-63.12
-54.52
-51.94
-58.47
-72.76
-88.95
-99.28
-97.94
-83.53
-59.43
-31.41
-4.27
20.19
42.98
65.72
88.10
106.94
117.57
116.70
104.90
86.79
68.83
55.77
48.38
43.36
35.77
22.34
3.56
-16.46
-32.50
-41.14
-42.62
-40.67
-40.40
-45.78
-57.89
-75.01
-94.26
-113.75
-133.87
-156.87
-184.88
-217.82
-251.80
-279.67
-293.08
-285.40
-253.71
-199.35
-127.00
-43.39
43.69
125.90
194.79
242.82
265.20
261.19
234.55
192.27
142.07
90.33
40.82
-4.97
-46.86
-85.00
-119.76
-152.06
-183.71
-217.43
-256.34
-303.16
-359.18
-423.25
-490.93
-554.88
-606.45
-638.31
-646.85
-633.51
-603.68
-564.45
-521.76
-478.86
-436.39
-393.69
-350.30
-306.50
-262.94
-219.82
-176.49
-131.72
-84.71
-35.73
13.70
61.51
105.87
146.18
183.47
220.14
259.03
301.96
348.43
394.93
435.62
464.11
475.78
469.69
449.03
420.09
389.84
363.57
343.44
328.43
315.46
300.93
281.89
256.39
223.33
182.22
133.25
77.78
18.75
-39.25
-90.68
-130.21
-154.19
-161.43
-153.23
-132.90
-104.59
-72.64
-40.95
-12.69
9.80
25.24
33.52
35.69
33.72
29.89
26.19
23.77
22.76
22.51
22.07
20.65
18.07
14.54
10.50
6.38
2.57
-0.50
-2.30
-2.42
-0.90
1.43
2.90
1.64
-3.63
-12.71
-23.68
-33.36
-38.40
-36.61
-27.73
-13.57
2.61
17.43
28.42
34.76
37.13
37.11
36.31
35.77
35.76
36.05
36.42
36.74
37.20
37.88
38.62
38.86
37.91
35.41
31.72
27.99
25.85
26.66
30.92
37.89
45.82
52.75
57.40
59.76
61.01
62.69
65.64
69.47
72.61
73.37
71.02
66.38
61.38
57.92
56.84
57.58
58.80
59.57
60.21
62.12
66.91
75.12
85.60
95.57
101.58
100.62
91.07
73.10
48.88
22.04
-3.36
-24.16
-39.40
-50.81
-62.28
-78.32
-102.10
-134.20
-172.33
-212.08
-248.35
-276.56
-293.57
-297.84
-289.29
-268.99
-238.89
-201.69
-160.87
-120.41
-84.32
-55.83
-36.48
-25.48
-19.94
-15.97
-10.42
-2.28
6.92
14.05
16.16
12.20
3.49
-6.99
-16.26
-22.82
-27.19
-31.24
-36.77
-44.22
-52.29
-58.57
-60.95
-58.66
-52.85
-46.03
-41.01
-39.75
-42.53
-48.03
-53.98
-58.07
-58.74
-55.62
-49.60
-42.58
-37.01
-35.24
-38.77
-47.57
-59.64
-71.30
-78.11
-76.39
-64.77
-44.91
-21.33
0.22
14.88
20.60
18.85
13.95
10.95
13.35
21.47
32.57
42.53
48.10
48.81
47.18
47.53
53.80
67.65
87.95
111.47
134.48
154.17
169.09
178.89
183.49
182.67
176.21
164.49
149.17
133.27
120.57
114.40
116.30
125.13
137.27
147.59
151.23
145.09
128.70
104.12
74.83
44.46
15.86
-9.19
-29.59
-44.55
-53.54
-56.57
-54.79
-50.75
-47.99
-50.29
-60.68
-80.64
-109.87
-146.57
-188.09
-231.64
-274.66
-315.01
-350.70
-379.71
-400.27
-411.28
-413.01
-407.28
-396.91
-384.41
-370.91
-355.73
-337.10
-313.33
-284.03
-250.43
-214.80
-179.55
-146.31
-115.65
-87.37
-60.82
-35.16
-9.48
17.14
45.36
75.38
106.77
138.75
170.68
202.54
235.09
269.45
306.19
344.43
381.47
413.18
435.32
445.19
442.78
430.84
413.93
396.67
382.16
371.01
361.49
350.40
334.09
309.33
273.87
226.96
169.98
106.86
43.97
-10.95
-50.54
-69.83
-67.53
-46.21
-11.17
31.28
75.46
117.11
153.60
183.42
205.65
219.57
224.20
218.27
200.65
171.26
132.10
87.52
43.24
4.38
-26.66
-51.33
-74.31
-101.47
-137.55
-184.28
-239.87
-299.23
-355.01
-398.55
-421.10
-415.57
-378.53
-312.21
-225.05
-130.12
-41.68
29.19
77.59
105.47
119.57
128.10
137.55
151.29
169.61
190.95
212.78
232.14
245.67
250.03
242.80
223.82
195.84
163.91
133.60
109.17
92.24
81.92
75.83
71.57
67.49
62.97
57.97
52.33
45.42
36.11
23.18
5.90
-15.59
-40.29
-66.84
-94.07
-121.46
-149.22
-178.07
-208.91
-242.84
-281.05
-324.59
-373.26
-424.55
-473.03
-511.49
-533.44
-535.88
-520.79
-494.28
-463.73
-434.49
-408.05
-382.58
-355.11
-323.98
-289.87
-255.19
-222.37
-192.57
-165.38
-139.50
-113.65
-87.06
-59.50
-30.97
-1.56
28.53
58.92
89.14
118.75
147.68
176.34
205.54
236.35
269.90
307.12
348.26
392.11
435.43
472.97
498.69
507.56
497.46
469.94
429.46
381.48
330.49
278.84
227.04
174.78
122.15
70.20
20.79
-24.29
-64.22
-99.77
-133.39
-168.40
-207.50
-251.17
-296.53
-337.77
-368.00
-381.87
-377.48
-356.83
-324.10
-283.19
-235.96
-182.10
-121.21
-55.57
8.61
61.99
95.11
102.37
84.75
50.02
10.06
-23.48
-43.15
-47.52
-40.23
-27.04
-12.65
0.85
13.73
26.77
39.67
50.51
56.71
56.51
50.14
39.90
29.07
20.50
15.68
14.55
16.15
19.53
24.38
31.55
42.51
58.28
78.36
100.62
121.95
140.13
155.65
172.44
196.68
233.82
285.22
346.17
406.66
454.71
480.75
480.97
458.08
419.30
372.94
325.19
278.92
234.50
191.78
151.71
116.69
89.19
70.20
58.48
51.08
44.89
38.05
30.35
22.74
16.37
11.60
7.80
3.58
-2.84
-12.97
-27.78
-47.47
-71.35
-98.16
-126.86
-157.18
-189.67
-224.95
-262.58
-300.63
-335.96
-365.30
-386.25
-397.49
-398.44
-388.60
-367.67
-336.30
-296.73
-252.83
-208.84
-167.65
-129.55
-92.41
-53.22
-10.46
34.63
77.82
113.43
136.20
142.74
132.03
104.92
63.56
11.24
-47.08
-104.26
-151.48
-179.95
-183.58
-161.33
-117.88
-62.14
-4.22
47.68
89.00
118.51
137.00
145.66
145.49
137.50
123.15
104.35
82.94
60.03
35.80
9.94
-17.90
-47.49
-78.06
-108.75
-139.09
-169.15
-199.14
-228.97
-257.70
-283.33
-303.09
-313.98
-313.59
-301.13
-277.99
-247.82
-215.75
-187.00
-165.13
-151.08
-143.05
-137.69
-131.58
-122.45
-109.57
-93.21
-73.78
-51.11
-24.56
6.55
42.14
80.94
120.61
158.20
190.93
216.67
234.23
243.35
244.87
240.96
235.06
231.45
233.92
244.02
259.82
275.89
284.91
280.54
259.82
224.10
177.95
126.70
74.45
23.16
-26.32
-72.89
-114.68
-149.62
-177.27
-199.61
-220.62
-244.02
-270.86
-298.25
-320.46
-331.54
-328.23
-311.54
-285.98
-257.46
-230.86
-208.50
-190.21
-174.65
-160.59
-147.86
-137.13
-129.16
-123.86
-119.81
-114.60
-105.63
-91.25
-71.33
-47.13
-20.75
5.93
32.08
58.12
85.80
117.51
155.72
201.82
255.08
311.69
364.93
406.54
429.28
429.47
408.60
372.95
331.42
292.48
261.51
239.82
225.19
213.53
200.87
184.71
164.69
142.10
118.98
97.01
76.85
58.01
39.48
20.69
1.83
-15.80
-30.03
-38.06
-36.86
-24.05
0.80
34.81
71.47
101.85
117.56
113.96
92.22
58.95
23.56
-5.37
-22.73
-27.82
-23.33
-13.42
-2.33
6.64
11.10
9.68
2.02
-10.94
-27.08
-43.57
-57.74
-68.10
-74.93
-79.94
-85.14
-91.20
-96.36
-96.34
-85.37
-58.34
-12.87
48.96
120.25
190.59
248.62
285.14
295.62
281.19
247.80
203.86
157.72
115.56
80.74
54.18
35.23
22.67
14.84
9.96
6.12
1.72
-4.18
-11.63
-19.94
-28.14
-35.59
-42.49
-50.24
-60.94
-76.62
-98.09
-124.03
-151.13
-174.99
-191.68
-199.07
-197.35
-188.54
-175.40
-160.36
-145.03
-130.35
-117.25
-106.74
-100.01
-97.86
-100.04
-105.38
-111.82
-117.31
-120.33
-120.17
-116.87
-110.83
-102.48
-92.13
-80.06
-66.87
-53.47
-41.10
-30.79
-23.13
-18.15
-15.31
-14.03
-13.85
-14.48
-15.65
-16.85
-17.30
-16.08
-12.59
-6.80
0.64
8.43
15.26
20.07
22.37
22.34
20.44
17.34
13.62
9.85
6.69
4.86
5.06
7.59
12.12
17.59
22.45
25.38
25.64
23.77
21.13
19.36
19.63
21.94
25.34
28.35
29.89
29.72
28.50
27.15
26.34
26.00
25.54
24.10
21.40
17.72
13.86
10.76
8.74
7.58
6.49
4.69
1.84
-1.75
-5.32
-8.04
-9.45
-9.67
-9.33
-9.09
-9.41
-10.12
-10.61
-10.19
-8.37
-5.30
-1.67
1.62
3.89
5.11
5.93
7.39
10.40
15.22
21.22
26.77
29.92
28.74
21.88
8.90
-9.82
-33.05
-59.02
-85.47
-109.96
-130.12
-144.08
-150.77
-150.23
-143.67
-133.25
-121.48
-110.68
-102.23
-96.50
-93.09
-91.26
-90.43
-89.98
-88.96
-86.06
-80.02
-70.65
-59.44
-49.44
-43.93
-44.57
-50.29
-57.27
-60.80
-57.51
-46.76
-30.97
-13.95
0.84
11.73
19.06
24.26
28.61
32.32
34.49
33.64
28.67
19.81
8.65
-1.96
-8.95
-10.16
-4.96
5.19
17.33
27.88
33.76
33.28
26.46
14.60
-0.29
-15.99
-30.29
-41.03
-45.72
-41.97
-28.02
-3.17
31.73
74.58
122.36
171.59
218.60
259.74
291.90
313.12
323.26
324.14
318.90
311.01
303.02
296.17
290.53
285.59
280.82
275.62
269.24
260.66
248.78
232.95
213.36
191.17
168.07
145.94
126.39
110.29
98.16
89.94
85.19
83.15
82.57
82.14
80.61
77.40
72.69
67.33
62.32
58.17
54.51
50.28
44.25
35.90
25.77
15.40
6.44
-0.42
-5.80
-11.65
-20.04
-32.22
-47.91
-65.53
-82.96
-98.56
-111.73
-122.97
-133.31
-144.13
-156.51
-171.49
-189.82
-211.49
-235.39
-258.88
-278.33
-290.08
-291.83
-283.63
-268.00
-248.94
-230.53
-215.63
-205.40
-199.49
-196.79
-195.94
-195.43
-193.54
-188.22
-177.66
-160.89
-138.34
-111.90
-84.19
-57.73
-34.14
-13.96
3.00
17.11
28.37
36.68
41.97
44.53
45.20
44.77
43.96
42.98
41.86
40.77
40.33
41.45
44.91
50.87
58.42
65.69
70.49
70.91
66.16
56.73
44.07
30.05
16.18
3.16
-9.02
-20.72
-32.09
-42.69
-51.62
-57.92
-61.13
-61.49
-59.89
-57.10
-53.49
-48.77
-42.23
-33.55
-22.92
-11.12
0.95
12.75
24.25
35.60
46.70
57.08
66.04
72.95
77.77
80.87
82.97
84.69
86.28
87.61
88.16
87.28
84.34
79.00
71.31
61.69
50.81
39.23
27.20
14.72
1.55
-12.24
-26.24
-39.65
-51.40
-60.62
-66.71
-69.52
-69.21
-66.11
-60.63
-53.22
-44.47
-35.09
-25.94
-18.02
-12.07
-8.53
-7.11
-6.91
-6.81
-5.73
-3.25
0.40
4.55
8.52
11.97
15.01
18.02
21.22
24.44
27.21
28.84
29.04
27.91
25.99
23.99
22.35
21.17
20.18
19.10
17.83
16.58
15.69
15.40
15.72
16.39
16.94
17.07
16.59
15.59
14.33
13.00
11.70
10.25
8.42
6.06
3.27
0.43
-2.02
-3.71
-4.63
-5.14
-5.74
-6.91
-8.72
-10.93
-13.12
-14.83
-15.98
-16.73
-17.45
-18.33
-19.25
-19.74
-19.21
-17.25
-13.92
-9.70
-5.52
-2.18
-0.27
0.28
-0.00
-0.46
-0.52
-0.17
0.24
0.22
-0.43
-1.42
-2.05
-1.56
0.36
3.38
6.61
8.97
9.82
9.13
7.53
5.99
5.14
5.20
5.84
6.56
7.05
7.37
7.84
8.75
10.06
11.30
11.68
10.57
7.70
3.51
-1.02
-4.84
-7.13
-7.76
-7.23
-6.40
-6.05
-6.49
-7.42
-8.18
-8.13
-7.05
-5.22
-3.36
-2.04
-1.45
-1.31
-0.99
-0.15
1.17
2.42
3.04
2.78
2.04
1.59
2.15
3.90
6.32
8.36
9.08
8.03
5.48
2.30
-0.67
-2.79
-4.05
-4.83
-5.57
-6.46
-7.39
-7.99
-7.95
-7.15
-5.83
-4.30
-2.99
-2.02
-1.30
-0.52
0.66
2.24
3.96
5.29
5.78
5.31
4.15
2.88
2.00
1.75
1.93
2.03
1.59
0.39
-1.38
-3.18
-4.54
-5.13
-4.98
-4.33
-3.45
-2.46
-1.36
-0.11
1.25
2.49
3.21
3.10
1.96
-0.01
-2.29
-4.26
-5.31
-5.31
-4.46
-3.37
-2.68
-2.74
-3.49
-4.47
-5.07
-4.80
-3.49
-1.50
0.70
2.56
3.82
4.61
5.15
5.65
6.03
5.96
5.11
3.42
1.27
-0.68
-1.75
-1.62
-0.49
1.17
2.77
4.07
5.18
6.42
8.08
9.98
11.59
12.16
11.13
8.48
4.80
1.17
-1.30
-1.82
-0.14
3.27
7.70
12.27
16.35
19.64
22.01
23.42
23.74
22.81
20.62
17.49
14.09
11.13
9.13
8.13
7.56
6.64
4.61
1.26
-3.04
-7.49
-11.16
-13.55
-14.56
-14.51
-13.79
-12.61
-10.97
-8.75
-6.03
-3.16
-0.68
0.78
1.03
0.24
-0.96
-1.81
-1.87
-1.08
0.06
0.84
0.74
-0.28
-1.74
-2.87
-3.01
-1.94
-0.05
1.93
3.20
3.36
2.56
1.32
0.29
-0.24
-0.47
-0.98
-2.34
-4.73
-7.70
-10.32
-11.47
-10.39
-7.00
-2.13
2.90
6.66
8.29
7.87
6.13
4.22
2.92
2.43
2.30
1.78
0.30
-2.30
-5.78
-9.78
-14.06
-18.49
-22.83
-26.44
-28.29
-27.46
-23.56
-17.45
-10.94
-6.24
-4.82
-6.67
-10.14
-12.76
-12.41
-8.30
-1.32
6.40
12.72
16.30
17.16
16.47
15.66
15.84
17.16
19.02
20.51
21.00
20.51
19.54
18.80
18.67
18.94
19.00
18.17
16.27
13.77
11.51
10.25
9.95
9.87
8.83
6.10
1.91
-2.44
-5.29
-5.48
-3.00
0.94
4.50
6.25
5.72
3.60
1.23
-0.34
-0.74
-0.62
-1.05
-2.96
-6.57
-11.27
-15.93
-19.46
-21.20
-21.25
-20.22
-18.94
-17.93
-17.33
-16.89
-16.19
-15.15
-13.95
-13.12
-13.10
-13.95
-15.26
-16.31
-16.44
-15.46
-13.74
-12.14
-11.46
-12.22
-14.31
-17.05
-19.66
-21.42
-22.05
-21.61
-20.34
-18.55
-16.47
-14.27
-12.18
-10.48
-9.57
-9.66
-10.87
-12.91
-15.34
-17.85
-20.43
-23.58
-28.04
-34.41
-42.61
-51.66
-59.68
-64.28
-63.20
-54.95
-39.16
-16.85
10.17
39.87
70.89
102.76
135.15
166.94
194.93
213.94
217.92
201.86
163.57
104.84
31.44
-47.64
-121.57
-179.34
-211.67
-212.50
-179.95
-116.65
-29.37
71.59
173.70
263.84
330.77
367.69
374.06
355.82
323.15
286.85
254.88
230.72
214.22
203.80
198.39
197.66
200.92
205.94
208.89
205.53
193.10
171.36
142.27
108.66
72.65
34.97
-4.41
-44.71
-83.18
-114.95
-134.79
-139.72
-131.05
-114.92
-100.09
-94.46
-101.65
-119.73
-142.57
-163.29
-177.56
-185.13
-188.99
-192.81
-198.36
-204.58
-208.52
-207.11
-199.24
-186.23
-171.16
-157.17
-145.89
-136.96
-128.48
-118.39
-105.61
-90.65
-75.37
-61.85
-51.57
-44.74
-40.46
-37.51
-34.84
-32.25
-30.15
-29.14
-29.45
-30.58
-31.45
-30.88
-28.17
-23.54
-17.98
-13.22
-10.57
-10.68
-13.20
-16.90
-20.55
-23.36
-25.30
-26.84
-28.37
-29.81
-30.49
-29.68
-27.08
-23.23
-19.51
-17.36
-17.64
-19.90
-22.52
-23.34
-20.47
-13.29
-2.62
9.58
21.02
29.82
34.98
36.36
34.37
29.59
22.73
14.49
6.01
-1.40
-6.47
-8.39
-7.49
-5.11
-3.23
-3.62
-7.06
-13.06
-20.11
-26.32
-30.13
-30.72
-28.26
-23.51
-17.67
-11.94
-7.35
-4.73
-4.42
-6.33
-9.68
-13.09
-14.69
-12.73
-6.05
5.25
19.73
34.89
48.05
57.03
61.20
61.34
59.27
57.13
56.28
57.09
59.00
61.11
62.91
64.61
67.10
71.43
78.26
87.43
97.73
107.44
114.61
117.78
116.19
109.70
98.79
84.19
67.00
48.70
31.24
16.68
6.75
1.96
1.38
2.72
3.44
1.60
-2.89
-8.57
-13.14
-14.70
-12.91
-8.92
-4.73
-1.96
-1.09
-1.43
-1.77
-1.32
-0.01
1.80
3.75
6.33
10.51
17.33
27.16
39.00
50.91
60.41
65.59
65.94
62.63
58.06
54.95
55.13
58.75
64.24
69.06
70.68
67.99
61.48
52.87
44.26
36.86
30.60
24.43
17.15
8.27
-1.66
-11.40
-19.75
-26.15
-30.93
-35.20
-39.89
-45.48
-51.63
-57.43
-62.13
-65.39
-67.70
-69.89
-72.66
-76.05
-79.42
-81.74
-82.13
-80.37
-76.91
-72.52
-68.12
-64.06
-60.24
-56.27
-51.71
-46.62
-41.48
-37.10
-34.14
-32.70
-32.23
-31.72
-30.26
-27.56
-24.15
-21.32
-20.29
-21.69
-25.03
-28.86
-31.63
-32.33
-31.15
-29.14
-27.58
-27.19
-27.77
-28.44
-28.30
-27.06
-25.29
-24.02
-24.26
-26.26
-29.42
-32.59
-34.45
-34.35
-32.22
-28.67
-24.44
-20.16
-16.04
-11.99
-7.95
-4.05
-0.76
1.23
1.57
0.40
-1.36
-2.30
-1.22
2.44
8.09
14.28
19.32
21.96
21.91
19.81
16.81
13.96
11.74
10.17
8.82
7.47
6.20
5.37
5.45
6.39
7.70
8.50
8.13
6.46
4.07
1.98
1.05
1.53
2.93
4.11
4.16
2.61
-0.17
-3.16
-5.43
-6.32
-5.84
-4.38
-2.30
0.39
4.04
9.08
15.64
23.20
30.67
36.85
40.72
42.14
41.65
40.30
39.24
39.08
39.84
41.03
41.97
42.24
41.74
40.61
38.99
36.88
34.17
30.55
26.15
21.24
16.43
12.42
9.54
7.77
6.57
5.24
3.19
0.27
-3.23
-6.68
-9.42
-11.08
-11.79
-12.01
-12.50
-13.71
-15.70
-18.13
-20.34
-21.95
-22.91
-23.54
-24.24
-25.05
-25.56
-25.05
-22.95
-19.22
-14.44
-9.78
-6.16
-4.07
-3.25
-2.92
-2.37
-1.33
-0.17
0.33
-0.47
-2.65
-5.63
-8.38
-9.94
-9.85
-8.44
-6.54
-5.22
-5.05
-5.96
-7.38
-8.39
-8.52
-7.83
-7.00
-6.86
-7.90
-9.95
-12.26
-13.88
-14.10
-12.75
-10.41
-7.85
-5.92
-5.18
-5.79
-7.89
-11.48
-16.50
-22.66
-29.25
-35.19
-39.54
-41.97
-43.24
-44.83
-48.20
-53.57
-59.65
-63.69
-63.08
-56.91
-46.87
-37.24
-33.15
-38.51
-54.38
-78.50
-106.17
-131.81
-150.61
-159.54
-157.89
-147.43
-131.76
-115.64
-103.49
-97.76
-98.05
-100.94
-101.39
-94.67
-78.20
-52.29
-19.77
15.35
49.36
79.55
104.37
123.10
135.32
140.96
140.29
134.14
124.09
112.07
100.04
89.57
81.44
75.55
70.99
66.47
60.88
53.93
46.50
40.21
36.91
37.68
42.33
49.49
57.24
64.13
69.60
74.02
78.12
82.50
87.43
92.95
98.63
103.21
103.93
96.91
78.37
46.98
5.61
-38.67
-76.50
-99.84
-104.80
-92.73
-68.85
-39.68
-10.58
15.22
36.15
51.22
59.30
59.33
51.17
36.21
17.45
-1.38
-17.15
-28.44
-35.88
-41.51
-47.36
-54.25
-61.09
-65.48
-64.92
-58.18
-46.20
-31.68
-17.87
-6.91
1.19
8.61
18.76
34.38
56.23
82.53
109.63
133.47
151.09
161.42
165.34
165.02
162.96
161.15
160.35
159.59
156.11
146.05
125.59
92.73
48.18
-4.51
-60.39
-115.07
-166.21
-214.07
-260.69
-308.49
-358.63
-409.85
-458.30
-498.09
-522.87
-527.83
-510.99
-473.86
-420.50
-356.14
-285.73
-213.26
-141.76
-73.65
-11.25
42.84
85.79
115.15
129.93
131.64
124.65
115.10
108.16
105.37
102.89
92.59
65.59
16.75
-51.86
-130.71
-205.37
-261.19
-287.54
-280.30
-242.30
-181.70
-109.25
-35.63
31.04
86.19
128.69
159.81
181.89
197.54
209.22
219.32
229.99
242.88
258.72
277.14
296.85
315.96
332.62
345.67
354.79
360.29
362.27
360.18
352.86
339.49
320.95
300.35
282.48
271.75
269.98
275.00
281.10
281.28
270.10
245.62
209.60
166.04
119.17
72.08
26.45
-16.87
-57.19
-93.77
-125.98
-153.73
-177.71
-199.19
-219.43
-239.04
-257.46
-273.03
-283.60
-287.54
-284.66
-276.59
-266.15
-256.22
-248.50
-242.92
-237.90
-231.34
-221.68
-208.28
-191.19
-170.42
-145.55
-116.01
-81.76
-44.09
-5.67
30.06
59.93
81.86
95.04
99.67
96.56
86.72
71.40
52.01
30.68
10.23
-5.82
-13.84
-11.27
2.56
25.76
54.34
83.49
108.96
128.10
139.78
143.88
140.61
130.38
114.33
94.70
74.96
58.92
49.49
47.82
53.09
63.28
76.10
89.72
102.80
114.23
122.79
127.35
127.43
123.87
118.53
113.69
110.64
108.88
106.26
100.02
88.55
72.18
52.75
32.26
11.80
-8.41
-27.78
-44.15
-53.89
-53.66
-43.02
-26.18
-11.10
-6.62
-19.05
-49.63
-95.16
-150.11
-209.37
-269.37
-327.44
-380.28
-423.19
-451.06
-460.68
-452.41
-430.86
-402.56
-373.19
-345.00
-316.18
-282.48
-239.61
-185.73
-122.48
-54.40
12.64
73.16
123.25
161.01
186.24
199.86
203.51
199.04
188.57
174.44
159.02
144.45
131.91
121.18
110.71
98.18
81.67
60.55
35.95
10.28
-13.67
-33.46
-47.90
-56.76
-60.57
-60.10
-56.10
-49.51
-41.37
-32.85
-24.95
-18.21
-12.63
-7.91
-3.82
-0.53
1.46
1.40
-1.03
-5.63
-11.53
-17.42
-22.17
-25.12
-26.65
-28.02
-30.94
-36.93
-46.70
-59.92
-75.19
-90.16
-101.52
-105.35
-97.88
-76.70
-42.53
-0.15
42.44
76.50
96.26
101.33
96.78
90.42
88.98
95.08
106.77
119.43
128.72
132.51
131.22
126.14
117.92
105.82
88.36
65.03
37.29
8.75
-16.08
-33.53
-42.11
-42.90
-38.83
-33.43
-29.28
-27.33
-27.08
-26.97
-25.45
-21.51
-14.87
-6.11
3.81
13.71
22.38
28.82
32.34
32.57
29.42
23.17
14.35
3.72
-7.58
-18.36
-27.38
-33.57
-36.45
-36.06
-33.13
-28.73
-24.02
-19.90
-16.84
-14.93
-13.98
-13.73
-13.95
-14.30
-14.52
-14.15
-12.84
-10.44
-7.11
-3.61
-0.84
0.39
-0.21
-2.16
-4.35
-5.40
-4.25
-0.61
4.80
10.36
14.18
14.70
11.41
5.19
-2.04
-7.82
-10.15
-8.11
-2.03
6.78
16.54
25.54
32.53
36.74
37.85
36.04
31.74
25.89
19.64
14.07
10.12
7.98
7.34
7.40
7.37
6.77
5.63
4.32
3.28
2.74
2.55
2.16
1.08
-1.06
-4.20
-7.89
-11.58
-14.74
-17.10
-18.57
-19.16
-18.81
-17.42
-14.87
-11.21
-6.74
-2.09
2.12
5.36
7.58
9.10
10.42
12.09
14.11
16.15
17.58
17.95
17.25
15.94
14.72
14.09
14.08
14.25
13.79
12.13
9.14
5.19
1.09
-2.51
-5.24
-7.20
-8.78
-10.34
-12.01
-13.62
-14.83
-15.32
-14.88
-13.60
-11.64
-9.31
-6.79
-4.18
-1.50
1.36
4.34
7.25
9.78
11.62
12.69
13.22
13.62
14.28
15.28
16.32
16.73
16.00
13.95
10.99
7.94
5.56
4.24
3.66
3.10
1.77
-0.70
-4.09
-7.69
-10.66
-12.45
-13.11
-13.26
-13.81
-15.52
-18.61
-22.70
-26.80
-29.98
-31.55
-31.50
-30.39
-29.02
-28.08
-27.80
-27.91
-27.84
-27.05
-25.37
-23.08
-20.89
-19.66
-19.96
-21.89
-24.64
-26.60
-25.46
-18.62
-3.50
21.85
58.16
104.18
156.24
208.52
254.21
287.19
303.91
304.27
291.13
268.89
241.46
211.24
179.06
145.16
110.35
76.39
45.46
19.17
-2.35
-20.52
-37.58
-55.50
-74.97
-94.93
-112.77
-125.27
-129.68
-124.74
-111.29
-92.02
-70.72
-51.02
-35.35
-24.44
-17.78
-14.55
-14.56
-18.58
-27.54
-41.34
-57.95
-73.57
-84.20
-87.50
-84.30
-78.52
-75.71
-80.65
-95.69
-120.22
-151.38
-185.45
-218.71
-247.65
-268.84
-279.15
-276.60
-261.51
-237.08
-208.63
-181.80
-160.35
-144.84
-132.59
-119.01
-99.71
-72.46
-38.16
-0.77
33.79
59.35
71.09
66.78
47.26
16.17
-20.96
-58.27
-90.89
-116.06
-133.20
-143.18
-146.97
-144.74
-135.13
-115.90
-85.32
-43.95
4.25
52.25
91.52
114.39
116.55
98.52
65.70
26.85
-8.70
-33.74
-44.86
-42.51
-29.42
-8.79
16.81
45.50
75.36
103.94
128.58
147.46
160.63
169.95
178.29
187.69
198.27
208.38
215.99
220.14
221.73
222.91
225.84
231.26
237.87
242.90
243.14
236.14
221.04
198.81
171.94
143.79
117.71
95.96
79.19
66.31
55.21
43.79
31.04
17.41
4.41
-6.24
-13.26
-16.08
-14.32
-7.39
5.82
26.35
54.09
86.68
119.13
144.69
156.66
150.58
125.60
84.55
32.59
-24.42
-81.38
-134.33
-180.31
-217.14
-243.52
-259.57
-267.11
-269.17
-268.76
-267.31
-264.04
-256.48
-242.10
-220.09
-192.35
-163.07
-137.11
-118.02
-106.60
-100.84
-96.92
-90.90
-80.25
-64.41
-44.49
-22.35
0.14
21.39
40.16
55.28
65.81
71.48
72.87
71.54
69.49
68.55
69.82
73.46
78.95
85.54
92.50
99.41
105.94
111.79
116.66
120.28
122.64
123.91
124.47
124.63
124.42
123.53
121.44
117.69
112.03
104.51
95.28
84.53
72.50
59.60
46.61
34.47
24.05
15.76
9.20
3.08
-4.54
-15.84
-32.41
-54.54
-80.53
-106.73
-128.36
-141.06
-142.44
-133.01
-115.70
-94.61
-73.21
-53.43
-35.74
-19.97
-6.22
4.91
12.74
17.22
19.14
19.82
20.38
21.22
21.98
21.96
20.84
18.96
17.27
16.88
18.52
22.18
27.15
32.35
36.74
39.80
41.77
43.42
45.84
49.85
55.67
62.82
70.28
76.92
81.73
84.08
83.73
80.85
75.94
69.90
63.83
58.83
55.59
54.18
54.06
54.31
54.16
53.16
51.20
48.23
44.08
38.41
30.91
21.70
11.43
1.13
-8.16
-15.74
-21.47
-25.75
-29.38
-33.53
-39.78
-50.18
-66.64
-89.84
-118.00
-146.22
-167.00
-172.14
-155.38
-115.04
-55.27
14.68
83.21
140.01
179.06
199.66
205.33
201.58
194.05
187.75
187.47
197.82
222.15
260.64
308.70
357.50
396.80
418.97
421.97
409.50
388.33
364.63
341.56
319.10
295.79
270.80
244.78
219.25
195.44
173.40
152.27
131.05
109.33
87.53
66.35
46.17
26.59
6.56
-15.17
-39.33
-65.75
-93.32
-120.44
-145.54
-167.88
-187.63
-206.03
-225.05
-246.78
-272.54
-302.01
-332.67
-360.22
-379.68
-387.26
-381.73
-365.01
-341.23
-315.00
-289.73
-266.62
-245.12
-223.87
-202.04
-179.84
-158.36
-139.00
-122.84
-110.45
-101.95
-97.15
-95.70
-97.04
-100.38
-104.69
-108.73
-111.47
-112.21
-110.84
-107.66
-103.17
-97.71
-91.35
-83.90
-75.18
-65.25
-54.66
-44.17
-34.71
-26.91
-20.95
-16.76
-13.96
-12.31
-11.63
-11.76
-12.28
-12.50
-11.64
-9.16
-5.12
-0.44
3.57
5.52
4.89
2.12
-1.46
-4.15
-4.84
-3.32
-0.37
2.80
5.21
6.50
7.00
7.29
7.83
8.66
9.21
9.01
7.71
5.53
3.18
1.28
0.31
0.08
0.05
-0.41
-1.59
-3.34
-5.14
-6.43
-6.92
-6.80
-6.55
-6.80
-7.74
-9.20
-10.70
-11.62
-11.81
-11.50
-11.38
-12.10
-13.98
-16.70
-19.42
-21.18
-21.27
-19.59
-16.85
-13.94
-11.71
-10.44
-9.70
-8.72
-6.71
-3.37
1.02
5.81
10.40
14.51
18.25
21.88
25.55
29.11
32.23
34.52
35.98
36.95
37.93
39.30
40.66
40.92
38.49
32.08
21.40
7.44
-7.73
-21.79
-32.96
-40.60
-45.23
-47.76
-48.97
-49.03
-47.49
-43.93
-38.30
-31.21
-23.68
-16.65
-10.66
-5.72
-1.61
1.81
4.45
5.95
5.95
4.24
1.11
-2.90
-7.08
-10.73
-13.52
-15.47
-16.95
-18.39
-20.07
-21.98
-23.80
-25.12
-25.57
-25.02
-23.69
-21.84
-19.83
-17.88
-16.02
-14.35
-12.89
-11.73
-10.87
-10.14
-9.21
-7.71
-5.35
-2.06
1.92
6.17
10.22
13.66
16.38
18.44
20.06
21.50
22.81
23.94
24.73
25.07
25.06
24.90
24.79
24.68
24.30
23.24
21.04
17.64
13.29
8.61
4.37
1.02
-1.37
-3.22
-5.16
-7.72
-11.01
-14.69
-18.14
-20.71
-22.03
-22.09
-21.07
-19.27
-16.78
-13.63
-9.91
-5.73
-1.57
2.08
4.80
6.60
8.05
10.08
13.73
19.52
27.21
35.68
43.10
47.78
48.77
46.36
42.23
38.69
37.83
40.57
46.53
54.36
62.39
69.23
73.86
75.37
72.69
64.64
50.52
30.65
6.76
-18.61
-43.14
-65.57
-86.15
-105.58
-123.78
-138.81
-147.03
-144.50
-128.87
-100.85
-64.15
-24.20
13.60
45.70
70.62
88.46
99.81
104.77
103.05
94.43
79.65
60.91
41.49
24.80
13.04
6.46
3.30
0.72
-3.81
-11.48
-21.55
-31.72
-38.92
-39.91
-32.24
-15.00
10.35
39.69
66.81
84.97
89.23
78.17
54.47
23.79
-7.48
-33.90
-52.25
-61.24
-60.82
-51.83
-35.82
-15.46
5.67
23.71
35.66
40.24
38.09
31.22
22.11
12.73
4.23
-3.20
-9.71
-15.48
-20.47
-24.28
-26.62
-27.43
-27.03
-25.99
-24.86
-24.00
-23.44
-23.09
-22.77
-22.41
-22.06
-21.62
-20.85
-19.32
-16.48
-12.21
-6.72
-0.74
4.87
9.41
12.58
14.50
15.56
16.21
16.75
17.28
18.02
19.18
21.31
24.89
30.01
36.25
42.29
46.48
47.37
44.43
38.47
31.28
24.93
20.72
18.60
17.29
14.80
9.72
1.71
-8.29
-18.48
-27.31
-33.85
-38.23
-41.03
-42.79
-43.59
-43.04
-40.65
-36.36
-30.79
-25.21
-20.87
-18.69
-18.56
-19.51
-20.18
-19.28
-16.41
-12.04
-7.29
-3.24
-0.32
1.85
4.22
7.68
12.53
18.27
23.63
27.42
28.84
27.88
25.42
22.43
19.80
17.74
15.98
14.11
11.96
9.86
8.51
8.58
10.25
12.85
15.24
16.12
14.75
11.31
6.55
1.60
-2.87
-6.64
-9.87
-12.60
-14.45
-14.68
-12.70
-8.52
-3.03
2.33
6.01
7.33
6.49
4.49
2.57
1.35
0.76
0.15
-1.12
-3.09
-5.13
-6.22
-5.69
-3.55
-0.67
1.52
1.89
-0.09
-4.02
-8.88
-13.64
-17.34
-19.45
-19.51
-17.13
-12.08
-4.66
4.25
13.37
21.69
29.06
36.13
43.52
51.06
57.10
58.98
54.28
42.05
23.78
2.92
-16.26
-30.10
-36.53
-35.22
-27.20
-14.14
1.91
18.56
33.28
43.44
47.10
43.52
33.42
19.00
3.08
-11.70
-23.47
-31.33
-35.15
-35.14
-31.80
-25.91
-18.62
-11.30
-5.40
-1.67
-0.19
-0.44
-1.75
-4.15
-8.33
-15.45
-26.19
-40.04
-54.93
-67.75
-75.38
-75.77
-68.59
-55.36
-38.61
-21.24
-5.54
7.16
16.29
21.97
24.49
24.21
21.55
17.08
11.52
5.67
0.28
-4.19
-7.46
-9.36
-9.81
-8.51
-5.28
-0.19
6.29
13.01
18.60
21.75
21.85
19.32
15.64
12.87
12.97
16.99
24.56
33.90
42.53
48.08
49.29
46.45
41.02
35.01
29.98
26.58
24.43
22.62
20.30
17.01
12.89
8.40
4.16
0.77
-1.36
-1.81
-0.41
2.67
6.74
10.45
12.09
10.11
3.95
-5.54
-16.08
-24.80
-29.22
-28.33
-23.00
-15.65
-9.22
-6.20
-7.75
-13.44
-21.69
-30.03
-35.83
-36.55
-30.46
-17.22
1.54
22.22
40.08
50.73
51.76
43.78
30.11
15.48
4.07
-1.98
-2.94
-1.03
0.99
0.97
-1.90
-7.00
-12.75
-17.43
-19.78
-19.38
-16.58
-12.15
-6.61
-0.11
7.54
16.39
25.62
33.52
37.68
35.99
27.67
13.93
-2.13
-16.24
-24.15
-22.83
-11.34
8.83
33.91
58.87
78.73
89.98
91.49
84.34
71.18
54.90
37.69
20.60
3.75
-13.13
-30.11
-46.65
-61.54
-73.33
-80.49
-82.14
-78.22
-69.60
-57.98
-45.21
-32.99
-22.44
-14.25
-8.91
-6.97
-8.90
-14.63
-23.09
-32.06
-38.58
-40.08
-35.44
-25.71
-14.02
-4.38
-0.33
-3.27
-11.83
-22.08
-28.76
-26.99
-13.79
10.85
43.94
80.23
113.67
139.25
154.28
159.00
155.73
147.12
134.64
117.62
93.85
61.00
18.31
-32.43
-86.98
-139.69
-184.90
-218.22
-237.03
-240.40
-228.48
-201.90
-161.31
-107.10
-40.16
37.23
120.05
199.90
265.80
306.82
315.66
292.46
246.30
193.39
151.78
134.77
145.41
175.57
209.53
230.64
228.26
201.29
157.74
110.27
70.28
43.39
28.52
20.43
14.17
8.30
4.94
7.22
15.47
25.10
27.63
14.60
-18.66
-70.89
-136.03
-205.98
-273.24
-331.73
-376.21
-401.54
-403.32
-379.48
-332.15
-267.62
-194.86
-122.76
-57.89
-3.62
39.98
74.98
104.56
131.85
158.68
184.57
206.43
219.31
218.01
198.97
161.50
108.22
44.52
-22.88
-87.46
-144.06
-189.63
-222.68
-242.84
-249.91
-243.55
-223.64
-191.16
-148.93
-101.58
-54.42
-11.79
24.43
54.61
80.28
102.55
120.77
132.82
136.20
129.59
114.02
93.08
71.97
55.86
48.32
50.29
60.23
74.99
91.31
107.20
122.56
138.59
156.51
175.66
192.89
203.00
200.74
182.87
149.41
103.53
50.21
-5.20
-57.97
-104.31
-140.90
-165.11
-175.38
-171.91
-157.34
-136.22
-113.85
-94.77
-81.56
-74.60
-72.50
-73.02
-73.90
-73.57
-71.38
-67.55
-62.84
-58.05
-53.80
-51.07
-51.70
-59.03
-77.09
-108.68
-153.19
-205.35
-256.38
-296.88
-320.25
-324.72
-313.09
-290.54
-261.62
-228.80
-192.52
-152.47
-109.20
-64.00
-18.00
29.22
79.90
136.79
200.60
267.89
330.54
377.72
399.35
390.14
351.63
292.39
225.12
162.74
114.87
85.48
73.09
72.51
77.42
82.56
84.87
83.47
78.81
71.87
63.69
55.40
48.89
46.58
50.66
61.83
77.86
93.60
102.27
97.91
77.88
44.19
2.89
-38.11
-71.89
-94.64
-106.51
-110.53
-111.00
-111.23
-112.55
-114.36
-114.84
-112.54
-107.17
-99.84
-92.49
-86.76
-83.15
-80.80
-77.88
-72.50
-63.49
-51.07
-36.18
-20.31
-4.88
8.68
18.64
23.18
20.83
11.72
-1.47
-13.56
-18.32
-11.19
8.13
34.43
58.23
69.61
62.28
36.65
-0.55
-39.53
-71.69
-93.18
-105.18
-111.69
-116.10
-119.02
-118.55
-112.63
-101.46
-88.49
-78.87
-77.16
-84.79
-99.61
-117.06
-132.12
-141.11
-142.09
-134.80
-119.94
-98.72
-72.57
-42.80
-10.24
24.92
62.64
102.18
141.57
177.64
207.16
227.96
239.46
242.22
236.74
222.57
198.30
162.57
115.49
59.40
-1.27
-61.25
-115.85
-161.99
-198.65
-226.36
-246.14
-258.60
-263.13
-258.21
-242.01
-214.00
-175.66
-130.68
-83.76
-38.92
2.07
39.99
77.40
116.79
159.12
203.09
245.67
283.18
312.16
329.97
334.41
323.87
297.77
257.61
207.68
154.60
105.47
65.43
36.18
16.03
1.53
-10.16
-20.17
-28.07
-33.09
-35.68
-37.61
-41.35
-48.47
-58.82
-70.71
-82.03
-91.57
-99.64
-107.67
-117.20
-128.54
-140.48
-150.37
-155.32
-153.64
-145.26
-131.98
-116.49
-101.38
-88.35
-78.02
-70.25
-64.38
-59.37
-53.78
-45.83
-34.17
-18.22
0.94
20.77
38.12
50.02
54.85
52.51
44.35
32.50
19.30
6.69
-4.02
-12.41
-18.89
-24.69
-31.09
-39.17
-48.98
-59.61
-69.82
-78.47
-85.40
-91.37
-97.60
-105.04
-113.82
-123.21
-131.91
-138.62
-142.28
-142.13
-137.61
-127.95
-112.33
-90.27
-62.07
-29.51
4.36
35.87
61.92
81.19
94.77
105.94
119.04
137.96
164.48
197.41
232.99
265.81
290.76
304.54
306.37
298.28
284.29
269.62
259.37
257.25
264.31
278.21
293.42
302.70
299.36
279.74
244.16
196.62
142.73
87.24
32.78
-20.17
-71.92
-122.17
-169.14
-209.89
-241.06
-259.79
-264.38
-254.77
-233.05
-203.82
-173.64
-149.72
-137.61
-139.08
-151.27
-167.57
-180.21
-183.10
-173.97
-154.70
-130.32
-107.12
-90.96
-86.21
-95.15
-117.65
-151.13
-190.49
-228.75
-258.50
-273.73
-271.51
-252.78
-221.85
-184.65
-146.69
-111.47
-79.83
-50.30
-20.29
12.50
48.75
86.76
122.56
151.09
167.97
171.18
161.95
144.25
123.28
103.62
88.00
77.16
70.53
67.18
66.33
67.37
69.47
71.35
71.65
69.34
64.35
57.56
50.51
44.76
41.32
40.36
41.30
43.10
44.56
44.69
42.87
38.94
33.21
26.36
19.26
12.70
7.23
2.94
-0.42
-3.42
-6.68
-10.69
-15.56
-20.83
-25.35
-27.22
-24.12
-13.88
4.72
31.20
63.13
96.50
126.81
150.26
164.86
170.68
169.50
163.80
155.90
147.34
138.90
130.80
123.11
115.82
108.80
101.72
93.99
85.05
74.60
62.84
50.43
38.29
27.23
17.70
9.77
3.20
-2.22
-6.58
-9.80
-11.73
-12.38
-11.93
-10.78
-9.38
-8.10
-7.08
-6.27
-5.48
-4.53
-3.36
-2.06
-0.83
0.10
0.61
0.75
0.67
0.63
0.82
1.33
2.12
3.08
4.12
5.20
6.34
7.54
8.79
10.01
11.14
12.15
13.11
14.10
15.22
16.47
17.78
19.03
20.06
20.76
21.02
20.78
20.01
18.75
17.06
15.05
12.79
10.37
7.80
5.11
2.33
-0.47
-3.19
-5.70
-7.89
-9.67
-11.05
-12.15
-13.18
-14.38
-15.90
-17.66
-19.36
-20.57
-20.91
-20.28
-18.83
-16.94
-15.00
-13.23
-11.73
-10.43
-9.25
-8.16
-7.21
-6.45
-5.89
-5.50
-5.15
-4.76
-4.30
-3.79
-3.28
-2.85
-2.54
-2.39
-2.38
-2.41
-2.41
-2.26
-1.97
-1.57
-1.19
-0.93
-0.84
-0.89
-0.96
-0.99
-1.03
-1.23
-1.73
-2.57
-3.62
-4.65
-5.38
-5.69
-5.65
-5.40
-5.10
-4.78
-4.33
-3.64
-2.62
-1.36
-0.05
1.05
1.77
2.04
1.93
1.58
1.16
0.81
0.62
0.66
0.93
1.42
2.05
2.67
3.11
3.18
2.80
2.00
0.93
-0.18
-1.09
-1.68
-1.88
-1.83
-1.65
-1.51
-1.53
-1.69
-1.97
-2.25
-2.46
-2.57
-2.61
-2.69
-2.91
-3.36
-4.11
-5.12
-6.32
-7.56
-8.65
-9.40
-9.66
-9.36
-8.58
-7.49
-6.34
-5.37
-4.71
-4.39
-4.29
-4.23
-4.02
-3.53
-2.70
-1.62
-0.46
0.61
1.42
1.93
2.23
2.49
2.92
3.68
4.85
6.38
8.12
9.83
11.25
12.07
12.11
11.27
9.71
7.75
5.81
4.30
3.42
3.14
3.15
3.09
2.62
1.58
0.01
-1.90
-3.96
-5.99
-7.91
-9.75
-11.55
-13.36
-15.21
-17.03
-18.67
-19.88
-20.45
-20.23
-19.26
-17.74
-15.96
-14.18
-12.50
-10.86
-9.14
-7.25
-5.26
-3.31
-1.58
-0.16
0.98
1.91
2.70
3.34
3.79
4.02
4.08
4.14
4.36
4.78
5.29
5.59
5.40
4.55
3.12
1.39
-0.30
-1.68
-2.69
-3.40
-3.99
-4.59
-5.25
-5.91
-6.42
-6.67
-6.53
-5.97
-5.03
-3.83
-2.52
-1.34
-0.50
-0.18
-0.42
-1.17
-2.22
-3.26
-3.98
-4.15
-3.70
-2.71
-1.41
-0.07
1.06
1.90
2.46
2.90
3.38
3.98
4.68
5.35
5.80
5.83
5.38
4.50
3.35
2.17
1.12
0.29
-0.38
-1.01
-1.68
-2.41
-3.08
-3.56
-3.71
-3.51
-3.01
-2.30
-1.45
-0.57
0.25
0.84
1.00
0.61
-0.36
-1.79
-3.41
-4.92
-6.11
-6.91
-7.44
-7.91
-8.57
-9.62
-11.08
-12.77
-14.39
-15.51
-15.84
-15.26
-13.91
-12.10
-10.17
-8.39
-6.87
-5.57
-4.43
-3.38
-2.40
-1.52
-0.74
-0.03
0.64
1.26
1.83
2.24
2.41
2.32
1.99
1.56
1.20
1.04
1.12
1.41
1.79
2.10
2.24
2.16
1.89
1.50
1.04
0.52
-0.08
-0.81
-1.69
-2.69
-3.71
-4.62
-5.33
-5.80
-6.08
-6.25
-6.43
-6.66
-6.92
-7.19
-7.47
-7.82
-8.36
-9.12
-10.06
-10.91
-11.25
-10.71
-9.12
-6.59
-3.53
-0.52
2.02
3.84
4.99
5.70
6.18
6.55
6.82
6.97
6.98
6.92
6.88
6.90
6.96
6.94
6.72
6.27
5.65
4.99
4.44
4.08
3.92
3.90
3.95
4.03
4.14
4.34
4.69
5.25
5.99
6.83
7.57
7.92
7.63
6.51
4.57
2.02
-0.75
-3.36
-5.52
-7.11
-8.18
-8.84
-9.22
-9.44
-9.56
-9.72
-10.05
-10.61
-11.34
-11.98
-12.16
-11.55
-10.03
-7.76
-5.13
-2.61
-0.54
0.98
2.08
2.94
3.74
4.50
5.17
5.66
5.94
6.02
5.98
5.88
5.74
5.60
5.45
5.26
4.98
4.56
4.00
3.32
2.57
1.81
1.06
0.32
-0.40
-1.00
-1.36
-1.35
-0.99
-0.46
-0.05
-0.08
-0.75
-2.04
-3.74
-5.53
-7.13
-8.38
-9.23
-9.73
-9.98
-10.06
-10.10
-10.21
-10.46
-10.85
-11.30
-11.61
-11.62
-11.17
-10.25
-8.90
-7.23
-5.37
-3.44
-1.59
0.02
1.26
2.08
2.55
2.84
3.10
3.38
3.59
3.59
3.31
2.79
2.19
1.73
1.55
1.65
1.92
2.15
2.20
2.00
1.62
1.15
0.67
0.20
-0.29
-0.83
-1.37
-1.83
-2.07
-2.05
-1.76
-1.31
-0.85
-0.50
-0.31
-0.25
-0.29
-0.43
-0.75
-1.39
-2.48
-4.03
-5.88
-7.64
-8.94
-9.51
-9.37
-8.78
-8.16
-7.82
-7.81
-7.94
-7.89
-7.46
-6.70
-5.82
-5.11
-4.69
-4.45
-4.18
-3.66
-2.84
-1.86
-0.95
-0.31
0.00
0.05
0.02
0.06
0.24
0.51
0.73
0.75
0.54
0.14
-0.33
-0.75
-1.08
-1.44
-1.94
-2.69
-3.59
-4.41
-4.85
-4.72
-4.13
-3.40
-2.97
-3.19
-4.13
-5.57
-7.12
-8.39
-9.10
-9.23
-8.88
-8.24
-7.48
-6.74
-6.07
-5.48
-4.93
-4.36
-3.71
-2.93
-2.00
-0.93
0.28
1.59
2.96
4.30
5.60
6.81
7.97
9.17
10.51
12.05
13.76
15.50
17.08
18.36
19.23
19.69
19.78
19.53
19.01
18.30
17.45
16.55
15.60
14.55
13.32
11.84
10.09
8.15
6.09
4.00
1.96
0.07
-1.50
-2.57
-2.99
-2.76
-2.13
-1.50
-1.24
-1.47
-2.11
-2.89
-3.59
-4.17
-4.81
-5.76
-7.16
-8.94
-10.81
-12.42
-13.48
-13.82
-13.43
-12.34
-10.69
-8.68
-6.65
-5.02
-4.22
-4.52
-5.98
-8.41
-11.44
-14.64
-17.61
-20.03
-21.68
-22.45
-22.25
-21.05
-18.84
-15.73
-11.96
-8.00
-4.50
-2.14
-1.38
-2.29
-4.41
-6.95
-9.07
-10.19
-10.25
-9.61
-8.84
-8.34
-8.21
-8.20
-7.94
-7.17
-5.89
-4.38
-3.03
-2.19
-1.97
-2.32
-3.02
-3.87
-4.75
-5.60
-6.31
-6.59
-5.93
-3.69
0.65
7.18
15.40
24.21
32.29
38.47
42.13
43.31
42.56
40.70
38.43
36.18
33.98
31.66
28.97
25.77
22.16
18.45
15.17
12.81
11.74
11.95
13.13
14.71
16.09
16.89
17.02
16.67
16.08
15.48
14.83
13.98
12.65
10.67
7.93
4.50
0.52
-3.76
-8.00
-11.80
-14.76
-16.59
-17.18
-16.67
-15.41
-13.75
-12.01
-10.35
-8.77
-7.14
-5.28
-3.08
-0.49
2.37
5.27
7.90
10.00
11.35
11.79
11.14
9.24
5.99
1.48
-3.87
-9.37
-14.18
-17.66
-19.56
-20.19
-20.24
-20.55
-21.74
-24.01
-27.03
-30.14
-32.57
-33.75
-33.40
-31.58
-28.54
-24.51
-19.59
-13.77
-7.13
-0.02
6.85
12.57
16.32
17.76
17.19
15.44
13.51
12.03
11.12
10.25
8.73
6.10
2.45
-1.53
-4.87
-6.81
-7.08
-6.11
-4.73
-3.82
-3.91
-4.99
-6.50
-7.62
-7.60
-6.02
-3.02
0.87
4.91
8.43
11.08
12.82
13.89
14.60
15.24
15.96
16.77
17.56
18.09
17.99
16.79
14.08
9.77
4.32
-1.28
-5.74
-7.89
-7.05
-3.28
2.73
10.00
17.66
25.18
32.47
39.68
47.13
55.06
63.63
72.83
82.63
92.97
103.82
115.16
126.97
139.19
151.66
164.21
176.71
189.04
200.82
211.11
218.09
219.28
212.32
195.92
170.63
138.60
102.90
66.55
32.02
1.23
-24.22
-43.11
-55.25
-62.09
-66.87
-73.59
-85.30
-102.58
-123.15
-143.05
-158.75
-168.79
-174.09
-177.02
-179.62
-182.51
-184.87
-185.18
-182.32
-176.17
-167.65
-158.21
-149.33
-142.19
-137.45
-135.19
-134.64
-133.92
-130.13
-119.79
-99.57
-67.25
-22.65
31.72
90.57
146.48
191.71
220.77
232.62
231.55
225.46
222.38
226.72
237.17
247.77
251.47
244.22
227.10
205.18
183.88
165.17
146.22
121.25
85.48
38.84
-13.39
-62.86
-102.50
-129.98
-148.16
-162.73
-178.24
-195.29
-210.46
-218.99
-218.23
-209.78
-199.03
-192.65
-195.31
-207.90
-227.44
-248.70
-266.33
-276.24
-276.25
-266.03
-246.80
-220.99
-191.77
-162.28
-134.81
-110.22
-88.05
-67.18
-47.02
-28.07
-11.89
-0.23
5.99
7.34
5.88
4.33
5.18
9.81
18.11
28.71
39.64
49.10
56.15
60.98
64.75
68.90
74.40
81.25
88.46
94.58
98.22
98.54
95.06
87.59
76.07
61.10
44.50
29.47
19.89
18.93
27.63
44.14
64.36
83.42
97.42
104.44
104.62
99.39
90.53
79.57
67.72
55.97
45.20
36.13
29.09
23.92
20.00
16.45
12.39
7.21
0.68
-6.94
-15.08
-22.97
-30.05
-36.19
-41.77
-47.49
-54.00
-61.54
-69.72
-77.60
-83.86
-87.17
-86.47
-81.22
-71.51
-58.16
-42.61
-26.66
-12.09
-0.33
7.78
12.08
12.86
10.70
6.34
0.58
-5.64
-11.41
-15.86
-18.43
-18.91
-17.46
-14.50
-10.60
-6.32
-2.18
1.45
4.38
6.57
8.13
9.22
9.92
10.21
9.98
9.14
7.75
6.04
4.32
2.79
1.42
-0.05
-1.97
-4.54
-7.68
-11.01
-14.10
-16.67
-18.78
-20.71
-22.80
-25.21
-27.80
-30.25
-32.20
-33.42
-33.88
-33.59
-32.55
-30.66
-27.83
-24.12
-19.75
-15.09
-10.55
-6.43
-2.84
0.21
2.82
5.07
7.01
8.57
9.65
10.13
9.96
9.31
8.52
7.98
7.95
8.41
9.06
9.48
9.38
8.68
7.53
6.18
4.82
3.61
2.61
1.87
1.45
1.36
1.45
1.48
1.17
0.30
-1.16
-3.11
-5.25
-7.32
-9.03
-10.18
-10.69
-10.57
-9.94
-8.98
-7.84
-6.58
-5.23
-3.79
-2.31
-0.83
0.56
1.78
2.76
3.41
3.66
3.46
2.87
2.05
1.23
0.63
0.40
0.51
0.87
1.30
1.67
1.86
1.85
1.65
1.29
0.89
0.50
0.17
-0.15
-0.55
-1.18
-2.11
-3.32
-4.65
-5.83
-6.52
-6.52
-5.79
-4.57
-3.27
-2.32
-1.91
-1.92
-1.95
-1.59
-0.63
0.81
2.36
3.60
4.32
4.56
4.51
4.37
4.20
3.94
3.48
2.74
1.78
0.73
-0.25
-1.06
-1.67
-2.16
-2.62
-3.08
-3.51
-3.80
-3.82
-3.45
-2.68
-1.57
-0.22
1.22
2.63
3.84
4.70
5.02
4.69
3.68
2.09
0.17
-1.76
-3.36
-4.40
-4.79
-4.56
-3.86
-2.91
-1.87
-0.85
0.15
1.21
2.41
3.78
5.26
6.67
7.81
8.48
8.64
8.40
8.04
7.79
7.79
7.96
8.08
7.90
7.31
6.36
5.26
4.23
3.42
2.87
2.50
2.27
2.15
2.16
2.36
2.68
3.04
3.28
3.32
3.13
2.78
2.41
2.08
1.74
1.27
0.51
-0.62
-2.04
-3.50
-4.64
-5.14
-4.83
-3.74
-2.14
-0.41
1.13
2.29
3.09
3.66
4.14
4.59
4.89
4.87
4.46
3.70
2.77
1.93
1.37
1.14
1.14
1.20
1.20
1.10
0.97
0.91
1.00
1.19
1.42
1.55
1.54
1.37
1.14
1.00
1.05
1.34
1.79
2.28
2.66
2.82
2.76
2.57
2.32
2.08
1.85
1.54
1.07
0.40
-0.47
-1.40
-2.14
-2.48
-2.31
-1.64
-0.63
0.50
1.61
2.65
3.65
4.65
5.61
6.44
6.98
7.09
6.77
6.07
5.16
4.21
3.39
2.83
2.60
2.65
2.80
2.87
2.66
2.10
1.29
0.40
-0.33
-0.73
-0.69
-0.26
0.48
1.35
2.11
2.56
2.50
1.88
0.86
-0.22
-0.94
-0.96
-0.25
0.95
2.14
2.82
2.69
1.78
0.34
-1.32
-2.93
-4.34
-5.40
-6.00
-5.99
-5.35
-4.21
-2.87
-1.67
-0.83
-0.39
-0.14
0.12
0.53
1.03
1.45
1.59
1.36
0.84
0.25
-0.21
-0.41
-0.43
-0.48
-0.88
-1.84
-3.37
-5.20
-6.96
-8.32
-9.17
-9.74
-10.44
-11.70
-13.68
-16.14
-18.54
-20.25
-20.82
-20.20
-18.73
-17.05
-15.95
-16.27
-18.77
-24.01
-32.15
-42.51
-53.58
-63.06
-68.54
-68.24
-61.74
-50.19
-35.86
-21.32
-8.44
2.14
10.83
18.55
25.82
32.29
36.77
37.87
34.81
28.09
19.39
10.98
4.81
1.69
1.02
1.22
0.41
-2.65
-8.17
-15.21
-21.87
-25.71
-24.34
-16.07
-0.49
21.19
46.24
71.10
92.52
108.64
119.61
127.28
134.17
142.27
151.96
161.99
170.29
175.09
176.21
175.47
176.28
182.11
194.65
212.50
231.15
244.58
247.48
237.40
215.29
184.71
150.00
114.51
79.89
46.54
14.58
-15.47
-42.89
-67.23
-89.01
-109.54
-130.21
-151.82
-174.11
-196.00
-215.83
-231.60
-241.10
-242.21
-233.57
-215.52
-190.68
-163.45
-138.39
-118.52
-104.14
-93.57
-84.94
-77.75
-73.48
-74.28
-81.29
-93.38
-107.29
-119.17
-126.24
-127.72
-124.35
-117.13
-106.23
-90.37
-67.30
-34.66
9.03
63.09
123.83
184.50
236.57
272.36
288.00
284.75
267.97
244.04
217.12
187.78
154.46
116.01
74.04
32.64
-4.01
-34.20
-59.80
-84.49
-110.86
-138.18
-162.52
-178.77
-183.27
-175.06
-155.27
-125.54
-87.11
-41.29
9.04
58.24
98.33
121.33
122.40
102.37
68.18
30.84
1.86
-10.56
-4.01
17.91
47.36
74.97
92.71
95.47
81.61
52.28
10.71
-38.45
-89.71
-137.16
-175.46
-200.88
-212.23
-211.01
-200.70
-185.34
-168.06
-149.93
-130.09
-106.49
-77.58
-43.70
-7.79
24.81
48.10
57.38
51.21
32.16
6.07
-19.89
-39.66
-49.95
-50.59
-43.82
-32.60
-19.48
-5.91
7.59
20.84
33.85
46.46
58.67
70.65
82.54
94.00
103.60
108.52
104.82
88.49
57.09
11.03
-45.41
-104.96
-158.93
-199.55
-222.16
-225.81
-212.89
-187.45
-153.56
-114.38
-72.28
-29.57
10.91
45.87
72.31
88.67
95.41
94.86
90.34
84.76
79.80
75.35
70.16
62.77
52.58
40.31
27.74
16.92
9.24
4.90
3.10
2.56
2.49
2.77
3.97
6.85
11.58
17.63
23.87
29.16
32.89
35.22
36.81
38.34
39.97
41.28
41.33
39.41
35.24
29.39
22.98
17.19
12.80
9.81
7.61
5.34
2.40
-1.16
-4.81
-7.81
-9.68
-10.53
-10.97
-11.97
-14.13
-17.63
-22.04
-26.55
-30.44
-33.28
-35.03
-35.79
-35.65
-34.54
-32.32
-28.97
-24.78
-20.24
-16.02
-12.51
-9.84
-7.78
-5.86
-3.82
-1.53
0.72
2.57
3.73
4.28
4.58
5.16
6.39
8.24
10.26
11.83
12.29
11.50
9.74
7.64
5.90
4.83
4.34
3.94
3.10
1.56
-0.54
-2.70
-4.39
-5.21
-5.04
-4.05
-2.40
-0.27
2.29
5.20
8.17
10.83
12.70
13.52
13.34
12.57
11.81
11.58
12.12
13.36
14.98
16.64
17.93
18.71
18.96
18.79
18.51
18.29
18.28
18.41
18.50
18.39
17.99
17.40
16.73
16.08
15.42
14.49
13.12
11.17
8.76
6.25
3.95
2.07
0.41
-1.48
-4.12
-7.72
-12.03
-16.29
-19.48
-20.83
-20.10
-17.65
-14.41
-11.21
-8.63
-6.69
-4.93
-2.95
-0.55
2.02
4.36
6.19
7.57
8.88
10.48
12.51
14.69
16.38
17.12
16.70
15.48
14.15
13.36
13.41
14.08
14.79
14.97
14.38
13.25
12.10
11.47
11.54
12.10
12.66
12.56
11.56
9.71
7.45
5.35
3.69
2.48
1.42
0.04
-1.90
-4.36
-7.00
-9.35
-11.03
-11.82
-11.89
-11.41
-10.59
-9.43
-7.80
-5.63
-2.95
-0.09
2.57
4.70
6.25
7.45
8.65
10.11
11.82
13.53
14.87
15.44
15.21
14.35
13.27
12.49
12.23
12.49
12.94
13.22
13.13
12.77
12.41
12.36
12.70
13.21
13.40
12.89
11.51
9.46
7.26
5.34
3.99
3.06
2.20
1.00
-0.73
-2.90
-5.20
-7.27
-8.90
-10.18
-11.30
-12.61
-14.06
-15.35
-15.91
-15.18
-13.05
-9.89
-6.43
-3.41
-1.11
0.69
2.58
5.04
8.12
11.38
13.92
15.13
14.80
13.40
11.78
10.62
10.21
10.24
10.13
9.40
7.99
6.31
4.96
4.41
4.79
5.77
6.83
7.39
7.22
6.43
5.35
4.43
3.81
3.33
2.61
1.31
-0.58
-2.65
-4.27
-4.98
-4.76
-4.08
-3.83
-4.63
-6.73
-9.72
-12.67
-14.70
-15.22
-14.26
-12.32
-10.07
-7.93
-5.94
-3.80
-1.22
1.85
5.05
7.82
9.59
10.30
10.31
10.24
10.64
11.56
12.61
13.17
12.81
11.62
10.11
8.99
8.72
9.32
10.35
11.03
10.88
9.69
7.76
5.75
4.21
3.49
3.47
3.74
3.83
3.46
2.66
1.74
1.00
0.59
0.36
-0.01
-0.90
-2.45
-4.52
-6.79
-8.85
-10.56
-11.98
-13.26
-14.43
-15.19
-14.99
-13.27
-9.88
-5.23
-0.21
4.02
6.70
7.59
7.15
6.23
5.53
5.45
5.78
6.04
5.75
4.78
3.43
2.23
1.64
1.84
2.61
3.52
4.14
4.38
4.42
4.62
5.30
6.35
7.40
7.91
7.52
6.33
4.84
3.74
3.51
4.25
5.54
6.58
6.70
5.47
2.97
-0.31
-3.88
-7.27
-10.32
-12.99
-15.19
-16.69
-17.13
-16.20
-13.93
-10.68
-7.20
-4.17
-2.14
-1.13
-0.69
-0.25
0.73
2.32
4.21
5.87
6.90
7.29
7.41
7.86
9.02
10.91
13.11
14.93
15.81
15.53
14.34
12.80
11.40
10.35
9.47
8.34
6.62
4.22
1.45
-1.24
-3.39
-4.83
-5.81
-6.73
-8.08
-10.04
-12.42
-14.80
-16.65
-17.76
-18.27
-18.55
-18.87
-19.09
-18.68
-16.94
-13.52
-8.72
-3.45
1.05
3.93
5.00
4.78
4.23
4.10
4.65
5.61
6.46
6.84
6.74
6.53
6.72
7.63
9.26
11.15
12.74
13.53
13.42
12.77
12.11
11.98
12.44
13.15
13.40
12.58
10.54
7.68
4.70
2.30
0.78
-0.05
-0.74
-1.80
-3.43
-5.44
-7.34
-8.76
-9.58
-10.06
-10.63
-11.53
-12.63
-13.42
-13.25
-11.71
-8.85
-5.31
-1.91
0.59
1.96
2.54
2.95
3.79
5.15
6.65
7.63
7.65
6.77
5.56
4.80
4.98
6.02
7.34
8.04
7.63
6.12
4.03
2.21
1.19
1.09
1.48
1.78
1.53
0.69
-0.41
-1.30
-1.64
-1.40
-0.95
-0.71
-1.12
-2.22
-3.79
-5.50
-7.05
-8.48
-9.99
-11.84
-14.01
-16.08
-17.40
-17.36
-15.72
-12.76
-9.14
-5.74
-3.11
-1.42
-0.43
0.41
1.50
2.98
4.61
6.00
6.80
7.01
6.93
7.06
7.76
9.06
10.56
11.72
12.07
11.57
10.62
9.76
9.43
9.58
9.76
9.34
7.95
5.73
3.28
1.33
0.33
0.20
0.47
0.41
-0.27
-1.55
-3.00
-4.13
-4.79
-5.21
-5.86
-7.14
-9.12
-11.36
-13.20
-13.98
-13.33
-11.30
-8.40
-5.31
-2.75
-1.08
-0.26
0.04
0.40
1.17
2.40
3.78
4.89
5.48
5.63
5.76
6.28
7.39
8.95
10.42
11.36
11.52
11.01
10.28
9.68
9.37
9.12
8.61
7.60
6.19
4.76
3.79
3.56
3.98
4.53
4.67
3.96
2.46
0.66
-0.84
-1.57
-1.61
-1.34
-1.35
-1.98
-3.22
-4.67
-5.79
-6.19
-5.75
-4.61
-3.16
-1.66
-0.22
1.24
2.97
5.10
7.65
10.40
13.10
15.63
18.04
20.51
23.09
25.54
27.35
27.83
26.66
23.89
20.17
16.38
13.26
11.17
9.89
8.93
7.76
6.14
4.23
2.40
1.05
0.33
0.13
0.12
-0.09
-0.71
-1.77
-3.16
-4.68
-6.37
-8.40
-11.07
-14.55
-18.67
-22.81
-26.09
-27.71
-27.29
-25.03
-21.81
-18.61
-16.29
-15.01
-14.35
-13.60
-12.15
-9.97
-7.48
-5.37
-4.13
-3.77
-3.83
-3.67
-2.84
-1.33
0.50
2.01
2.77
2.67
1.95
1.21
0.85
1.06
1.60
2.04
2.02
1.50
0.80
0.34
0.40
0.87
1.19
0.74
-0.89
-3.55
-6.63
-9.42
-11.46
-12.82
-13.89
-15.03
-16.21
-16.93
-16.52
-14.53
-11.13
-7.13
-3.54
-1.23
-0.34
-0.41
-0.64
-0.24
0.98
2.69
4.18
4.83
4.53
3.64
2.83
2.66
3.26
4.32
5.22
5.49
5.04
4.17
3.47
3.33
3.82
4.51
4.79
4.18
2.69
0.79
-0.80
-1.46
-1.07
-0.03
0.94
1.05
0.05
-1.86
-4.06
-5.79
-6.62
-6.51
-5.80
-4.96
-4.28
-3.75
-3.11
-2.06
-0.51
1.37
3.11
4.30
4.70
4.42
3.96
3.79
4.30
5.39
6.64
7.52
7.69
7.18
6.38
5.79
5.75
6.20
6.77
6.90
6.30
5.03
3.48
2.21
1.46
1.15
0.89
0.30
-0.70
-1.83
-2.62
-2.72
-2.16
-1.37
-1.03
-1.64
-3.30
-5.60
-7.78
-9.18
-9.43
-8.72
-7.55
-6.51
-5.87
-5.55
-5.14
-4.27
-2.76
-0.84
1.07
2.47
3.14
3.20
2.97
2.93
3.23
3.83
4.42
4.66
4.43
3.87
3.32
3.10
3.38
3.98
4.43
4.31
3.34
1.64
-0.26
-1.82
-2.65
-2.76
-2.54
-2.50
-2.99
-3.99
-5.16
-6.07
-6.48
-6.46
-6.32
-6.44
-6.91
-7.50
-7.84
-7.48
-6.42
-4.97
-3.69
-3.01
-2.95
-3.15
-3.05
-2.21
-0.62
1.33
2.97
3.81
3.65
2.76
1.77
1.17
1.23
1.75
2.25
2.32
1.86
1.16
0.74
1.03
2.05
3.36
4.38
4.52
3.64
2.05
0.29
-1.06
-1.85
-2.25
-2.69
-3.55
-4.90
-6.43
-7.66
-8.19
-7.89
-6.95
-5.85
-4.96
-4.52
-4.43
-4.29
-3.80
-2.81
-1.55
-0.45
0.10
-0.00
-0.48
-0.82
-0.51
0.65
2.44
4.35
5.78
6.45
6.41
6.04
5.82
5.95
6.31
6.52
6.20
5.24
3.94
2.80
2.30
2.58
3.34
3.91
3.78
2.70
0.93
-0.85
-2.11
-2.58
-2.56
-2.59
-3.20
-4.45
-6.03
-7.40
-8.11
-8.05
-7.46
-6.69
-6.06
-5.57
-5.00
-4.09
-2.69
-1.02
0.55
1.54
1.78
1.51
1.22
1.50
2.65
4.47
6.43
7.73
7.92
6.99
5.39
3.86
2.89
2.61
2.66
2.48
1.70
0.39
-1.01
-1.92
-1.94
-1.05
0.32
1.60
2.23
2.00
1.15
0.06
-0.73
-1.06
-1.09
-1.27
-1.99
-3.34
-5.05
-6.55
-7.43
-7.59
-7.33
-7.29
-7.79
-8.81
-9.84
-10.14
-9.28
-7.31
-4.80
-2.53
-1.05
-0.40
-0.14
0.27
1.20
2.61
4.02
4.88
4.78
3.79
2.33
0.97
0.21
0.09
0.34
0.46
0.10
-0.69
-1.54
-1.92
-1.50
-0.38
0.99
1.89
1.89
0.91
-0.66
-2.17
-3.19
-3.55
-3.50
-3.47
-3.78
-4.54
-5.59
-6.63
-7.37
-7.68
-7.65
-7.38
-7.06
-6.71
-6.21
-5.41
-4.17
-2.61
-1.07
0.01
0.33
-0.08
-0.84
-1.33
-1.09
-0.02
1.57
2.99
3.74
3.62
2.90
2.19
1.90
2.26
2.98
3.64
3.89
3.72
3.40
3.35
3.84
4.79
5.75
6.26
5.96
4.92
3.58
2.42
1.87
1.84
1.88
1.38
-0.03
-2.21
-4.55
-6.20
-6.55
-5.51
-3.54
-1.53
-0.17
0.26
0.03
-0.17
0.23
1.52
3.46
5.55
7.28
8.32
8.57
8.13
7.11
5.57
3.48
0.87
-2.23
-5.62
-8.93
-11.80
-13.79
-14.74
-14.67
-13.85
-12.68
-11.46
-10.25
-8.95
-7.37
-5.42
-3.19
-1.06
0.60
1.52
1.59
1.03
0.03
-1.23
-2.66
-4.24
-5.83
-7.13
-7.77
-7.48
-6.26
-4.42
-2.62
-1.41
-1.20
-1.93
-3.09
-4.03
-4.03
-2.84
-0.63
2.05
4.55
6.50
7.91
9.12
10.48
12.11
13.75
14.80
14.78
13.55
11.47
9.30
7.64
6.72
6.27
5.74
4.72
3.16
1.43
-0.01
-0.88
-1.33
-1.93
-3.25
-5.59
-8.67
-11.69
-13.73
-14.09
-12.78
-10.37
-7.74
-5.64
-4.32
-3.49
-2.61
-1.29
0.48
2.32
3.57
3.87
3.19
1.92
0.67
-0.15
-0.42
-0.38
-0.39
-0.63
-1.02
-1.23
-0.90
0.08
1.49
2.72
3.25
2.72
1.28
-0.53
-2.10
-2.95
-3.09
-2.89
-2.92
-3.58
-4.92
-6.61
-8.10
-8.89
-8.75
-7.81
-6.47
-5.14
-4.07
-3.30
-2.63
-1.91
-1.11
-0.35
0.17
0.38
0.41
0.55
1.09
2.12
3.47
4.68
5.38
5.27
4.49
3.44
2.54
2.15
2.23
2.50
2.58
2.27
1.68
1.18
1.09
1.54
2.31
2.98
3.06
2.38
1.06
-0.49
-1.74
-2.48
-2.77
-2.94
-3.32
-4.03
-4.79
-5.13
-4.67
-3.33
-1.40
0.45
1.69
2.03
1.69
1.22
1.15
1.78
3.00
4.35
5.37
5.85
5.90
5.87
6.14
6.88
7.94
9.00
9.66
9.74
9.31
8.64
8.07
7.71
7.46
7.00
6.06
4.62
3.01
1.73
1.17
1.40
2.12
2.70
2.68
1.81
0.31
-1.31
-2.62
-3.38
-3.74
-4.15
-5.10
-6.84
-9.21
-11.73
-13.68
-14.51
-14.07
-12.61
-10.82
-9.26
-8.28
-7.75
-7.21
-6.30
-4.90
-3.31
-1.98
-1.20
-0.84
-0.52
0.23
1.58
3.36
4.98
5.96
6.04
5.41
4.66
4.26
4.54
5.34
6.20
6.56
6.14
5.01
3.57
2.30
1.51
1.20
1.09
0.79
0.11
-0.85
-1.86
-2.61
-3.11
-3.61
-4.48
-5.92
-7.73
-9.29
-9.92
-9.16
-7.07
-4.19
-1.38
0.72
1.76
1.92
1.76
1.82
2.48
3.68
5.05
6.11
6.58
6.53
6.34
6.52
7.35
8.69
10.10
10.96
10.93
10.10
8.93
8.07
7.83
8.13
8.47
8.29
7.35
5.86
4.35
3.29
2.90
2.97
2.99
2.61
1.65
0.35
-0.89
-1.78
-2.25
-2.64
-3.44
-4.99
-7.24
-9.68
-11.49
-11.92
-10.70
-8.19
-5.21
-2.81
-1.59
-1.64
-2.48
-3.35
-3.75
-3.55
-3.07
-2.78
-2.90
-3.35
-3.73
-3.64
-2.93
-1.78
-0.72
-0.19
-0.43
-1.20
-1.93
-2.13
-1.53
-0.41
0.67
1.10
0.67
-0.39
-1.52
-2.13
-1.97
-1.28
-0.56
-0.40
-1.00
-2.16
-3.39
-4.17
-4.39
-4.32
-4.54
-5.56
-7.43
-9.65
-11.40
-11.90
-10.77
-8.27
-5.24
-2.53
-0.78
0.00
0.33
0.82
1.93
3.57
5.22
6.28
6.43
5.84
4.99
4.50
4.65
5.31
6.06
6.38
6.05
5.20
4.21
3.58
3.46
3.74
4.05
4.06
3.71
3.25
3.01
3.19
3.68
4.10
3.96
3.07
1.56
-0.14
-1.48
-2.21
-2.38
-2.38
-2.69
-3.57
-5.01
-6.66
-8.06
-8.73
-8.43
-7.22
-5.39
-3.52
-2.02
-1.15
-0.85
-0.76
-0.55
-0.02
0.74
1.47
1.95
2.18
2.43
3.02
4.11
5.59
6.96
7.76
7.71
6.90
5.82
5.00
4.79
5.12
5.61
5.78
5.29
4.20
2.86
1.74
1.17
1.14
1.38
1.42
1.01
0.17
-0.82
-1.55
-1.85
-1.91
-2.17
-3.07
-4.73
-6.82
-8.68
-9.69
-9.56
-8.44
-6.92
-5.55
-4.65
-4.15
-3.68
-2.91
-1.75
-0.43
0.68
1.36
1.70
2.04
2.82
4.24
6.20
8.26
9.96
10.88
10.96
10.45
9.67
9.04
8.63
8.36
7.96
7.27
6.33
5.42
4.95
5.12
5.82
6.64
6.85
6.02
4.03
1.32
-1.30
-3.19
-4.00
-3.98
-3.70
-3.74
-4.38
-5.52
-6.80
-7.80
-8.30
-8.33
-8.02
-7.55
-6.95
-6.13
-5.09
-3.77
-2.43
-1.37
-0.93
-1.22
-2.01
-2.81
-3.04
-2.33
-0.76
1.23
2.86
3.61
3.27
2.15
0.92
0.09
-0.11
0.05
0.09
-0.42
-1.50
-2.85
-3.99
-4.62
-4.75
-4.80
-5.25
-6.46
-8.32
-10.39
-12.16
-13.25
-13.81
-14.30
-15.31
-17.14
-19.54
-21.79
-22.97
-22.45
-20.16
-16.63
-12.87
-9.77
-7.86
-7.05
-6.75
-6.33
-5.35
-3.88
-2.33
-1.16
-0.60
-0.50
-0.44
0.01
1.07
2.52
3.98
4.96
5.31
5.23
5.10
5.37
6.09
7.01
7.62
7.52
6.68
5.48
4.54
4.33
4.96
6.09
7.07
7.35
6.68
5.23
3.45
1.76
0.44
-0.55
-1.36
-2.17
-3.01
-3.80
-4.37
-4.60
-4.49
-4.21
-3.96
-3.93
-4.07
-4.06
-3.48
-1.94
0.51
3.45
6.15
8.02
8.84
8.94
8.97
9.47
10.57
11.96
12.93
13.04
12.18
10.76
9.49
8.83
8.89
9.24
9.31
8.67
7.37
5.84
4.64
4.14
4.26
4.49
4.28
3.18
1.22
-1.23
-3.67
-5.68
-7.23
-8.48
-9.70
-10.93
-11.96
-12.32
-11.59
-9.64
-6.77
-3.57
-0.80
1.11
2.11
2.58
3.10
4.04
5.43
6.92
8.00
8.31
7.88
7.08
6.35
5.97
5.94
5.83
5.28
4.06
2.36
0.68
-0.46
-0.72
-0.21
0.63
1.27
1.34
0.88
0.20
-0.20
-0.02
0.71
1.66
2.25
2.12
1.14
-0.49
-2.26
-3.83
-5.09
-6.28
-7.81
-9.89
-12.37
-14.67
-16.08
-16.15
-14.88
-12.90
-11.00
-9.80
-9.39
-9.32
-8.90
-7.57
-5.31
-2.59
-0.14
1.48
2.17
2.27
2.35
2.83
3.83
5.08
6.08
6.52
6.33
5.81
5.43
5.50
6.01
6.66
7.03
6.88
6.30
5.66
5.41
5.74
6.49
7.15
7.20
6.28
4.53
2.48
0.72
-0.32
-0.72
-0.97
-1.68
-3.22
-5.40
-7.56
-8.85
-8.73
-7.25
-5.00
-2.92
-1.68
-1.45
-1.85
-2.16
-1.89
-0.87
0.55
1.86
2.69
3.04
3.24
3.70
4.67
6.10
7.57
8.66
9.02
8.68
7.97
7.31
7.06
7.26
7.68
7.94
7.78
7.23
6.59
6.28
6.59
7.47
8.57
9.31
9.34
8.62
7.40
6.15
5.08
4.18
3.08
1.41
-0.97
-3.80
-6.52
-8.47
-9.25
-8.79
-7.43
-5.62
-3.83
-2.25
-0.80
0.71
2.47
4.35
6.07
7.20
7.52
7.13
6.45
6.03
6.24
7.10
8.23
9.03
9.14
8.51
7.45
6.50
5.94
5.79
5.76
5.50
4.92
4.23
3.76
3.80
4.33
5.07
5.44
5.13
4.00
2.35
0.69
-0.57
-1.27
-1.64
-2.15
-3.26
-5.12
-7.41
-9.54
-10.81
-10.78
-9.47
-7.31
-5.01
-3.11
-1.85
-1.12
-0.51
0.23
1.15
2.01
2.47
2.38
1.91
1.52
1.69
2.62
4.20
5.81
6.91
7.08
6.44
5.47
4.77
4.76
5.33
6.04
6.33
5.89
4.86
3.71
3.00
3.02
3.57
4.17
4.17
3.28
1.59
-0.52
-2.53
-4.21
-5.60
-6.98
-8.53
-10.10
-11.25
-11.46
-10.41
-8.25
-5.50
-2.94
-1.05
0.04
0.69
1.50
2.79
4.64
6.59
8.05
8.59
8.18
7.22
6.36
6.11
6.68
7.81
9.06
9.87
10.00
9.48
8.56
7.61
6.85
6.28
5.70
4.87
3.72
2.40
1.20
0.37
-0.00
-0.11
-0.40
-1.21
-2.71
-4.73
-6.82
-8.58
-9.82
-10.71
-11.61
-12.87
-14.50
-16.18
-17.31
-17.38
-16.20
-14.04
-11.44
-9.05
-7.21
-5.89
-4.78
-3.46
-1.79
0.07
1.68
2.63
2.81
2.52
2.31
2.66
3.75
5.35
6.82
7.69
7.68
6.99
6.15
5.57
5.48
5.73
5.94
5.83
5.38
4.79
4.41
4.45
4.89
5.45
5.80
5.66
5.03
4.12
3.20
2.48
1.82
0.89
-0.67
-2.98
-5.75
-8.31
-9.95
-10.18
-9.04
-7.00
-4.85
-3.20
-2.32
-2.01
-1.77
-1.17
-0.01
1.56
3.10
4.24
4.82
5.03
5.22
5.72
6.63
7.70
8.54
8.75
8.23
7.27
6.32
5.89
6.15
6.90
7.66
8.00
7.77
7.21
6.75
6.77
7.31
8.11
8.61
8.44
7.49
6.11
4.87
4.19
4.20
4.58
4.76
4.24
2.82
0.72
-1.60
-3.64
-5.08
-5.93
-6.41
-6.79
-7.15
-7.35
-7.15
-6.29
-4.88
-3.25
-1.86
-1.04
-0.75
-0.64
-0.20
0.93
2.70
4.71
6.30
7.01
6.67
5.63
4.51
3.80
3.71
3.97
4.08
3.65
2.64
1.44
0.64
0.69
1.66
3.16
4.55
5.24
4.96
3.89
2.43
1.13
0.24
-0.32
-0.87
-1.80
-3.30
-5.21
-7.19
-8.82
-9.90
-10.46
-10.80
-11.16
-11.67
-12.17
-12.31
-11.84
-10.73
-9.26
-7.87
-6.89
-6.36
-6.04
-5.48
-4.32
-2.45
-0.16
2.12
3.89
4.96
5.47
5.76
6.24
7.01
7.85
8.34
8.09
7.04
5.54
4.13
3.31
3.25
3.76
4.30
4.40
3.82
2.68
1.38
0.28
-0.45
-0.96
-1.57
-2.50
-3.73
-5.01
-6.05
-6.71
-7.13
-7.67
-8.59
-9.98
-11.52
-12.67
-13.00
-12.29
-10.86
-9.25
-8.07
-7.60
-7.70
-7.90
-7.62
-6.52
-4.69
-2.54
-0.69
0.46
0.86
0.84
0.90
1.39
2.38
3.52
4.40
4.73
4.56
4.22
4.10
4.38
4.91
5.29
5.15
4.33
3.09
1.96
1.40
1.63
2.34
2.99
2.99
2.07
0.48
-1.21
-2.38
-2.70
-2.34
-1.84
-1.95
-3.08
-5.20
-7.81
-10.13
-11.60
-11.99
-11.51
-10.53
-9.34
-7.91
-6.07
-3.61
-0.56
2.75
5.74
7.92
8.97
9.02
8.54
8.13
8.32
9.24
10.64
11.99
12.89
13.26
13.46
14.11
15.73
18.41
21.80
25.11
27.73
29.36
30.18
30.71
31.34
32.11
32.60
32.22
30.50
27.42
23.43
19.21
15.42
12.31
9.63
6.87
3.40
-1.04
-6.28
-11.88
-17.16
-21.66
-25.11
-27.48
-28.77
-28.90
-27.71
-25.08
-21.17
-16.52
-11.89
-8.20
-5.92
-5.09
-5.27
-5.70
-5.86
-5.55
-4.97
-4.44
-4.10
-3.72
-2.92
-1.41
0.65
2.69
3.91
3.85
2.54
0.62
-1.07
-1.98
-2.07
-1.98
-2.62
-4.79
-8.75
-14.09
-19.87
-25.03
-28.76
-30.77
-31.26
-30.95
-30.50
-30.32
-30.48
-30.66
-30.59
-30.21
-29.72
-29.41
-29.36
-29.31
-28.81
-27.42
-25.02
-21.84
-18.43
-15.19
-12.29
-9.50
-6.44
-2.86
1.20
5.24
8.68
10.99
12.11
12.42
12.62
13.35
14.93
17.18
19.58
21.41
22.23
21.91
20.73
19.16
17.51
15.86
14.01
11.72
8.89
5.75
2.72
0.24
-1.53
-2.70
-3.70
-4.92
-6.57
-8.43
-10.03
-10.91
-10.82
-9.96
-8.81
-7.90
-7.50
-7.49
-7.44
-6.85
-5.46
-3.37
-0.93
1.30
3.07
4.34
5.34
6.42
7.74
9.23
10.65
11.73
12.45
13.02
13.83
15.13
17.00
19.12
20.93
21.88
21.59
20.08
17.80
15.34
13.30
11.92
11.03
10.21
8.99
7.13
4.73
2.16
-0.22
-2.22
-3.93
-5.67
-7.63
-9.74
-11.63
-12.79
-12.96
-12.25
-11.26
-10.64
-10.80
-11.63
-12.60
-13.04
-12.57
-11.19
-9.40
-7.73
-6.60
-6.02
-5.64
-5.12
-4.18
-2.89
-1.47
-0.25
0.67
1.39
2.15
3.15
4.38
5.62
6.47
6.55
5.78
4.34
2.66
1.20
0.18
-0.48
-1.13
-2.15
-3.67
-5.46
-7.06
-7.94
-7.91
-7.09
-6.01
-5.14
-4.80
-4.88
-4.97
-4.66
-3.70
-2.26
-0.75
0.33
0.72
0.46
-0.11
-0.57
-0.58
-0.05
0.91
1.95
2.85
3.50
3.93
4.36
4.87
5.43
5.81
5.74
5.07
3.90
2.56
1.39
0.62
0.25
-0.04
-0.56
-1.62
-3.21
-5.02
-6.74
-8.06
-9.00
-9.73
-10.46
-11.22
-11.73
-11.59
-10.49
-8.41
-5.75
-3.07
-0.97
0.41
1.24
1.97
3.03
4.51
6.16
7.53
8.27
8.33
8.03
7.82
8.03
8.68
9.48
9.93
9.73
8.87
7.67
6.66
6.19
6.34
6.79
7.09
6.83
5.95
4.74
3.71
3.31
3.69
4.55
5.36
5.50
4.67
3.01
1.02
-0.69
-1.78
-2.26
-2.54
-3.06
-4.07
-5.48
-6.87
-7.82
-8.12
-7.81
-7.28
-6.85
-6.71
-6.73
-6.55
-5.90
-4.69
-3.20
-1.88
-1.12
-1.01
-1.30
-1.48
-1.14
-0.09
1.44
3.04
4.20
4.73
4.75
4.58
4.63
4.97
5.44
5.70
5.49
4.87
4.20
3.93
4.34
5.32
6.45
7.10
6.97
6.07
4.83
3.83
3.46
3.73
4.29
4.63
4.40
3.55
2.34
1.18
0.30
-0.29
-0.86
-1.75
-3.27
-5.39
-7.81
-10.04
-11.52
-11.95
-11.36
-10.11
-8.66
-7.36
-6.26
-5.15
-3.82
-2.20
-0.48
0.91
1.65
1.65
1.21
0.83
0.87
1.43
2.20
2.74
2.72
2.14
1.33
0.71
0.59
1.04
1.88
2.84
3.66
4.27
4.70
5.00
5.26
5.43
5.40
5.04
4.33
3.38
2.47
1.88
1.77
2.09
2.57
2.77
2.35
1.15
-0.71
-2.81
-4.85
-6.59
-8.09
-9.53
-11.02
-12.45
-13.51
-13.80
-13.11
-11.53
-9.49
-7.53
-6.13
-5.40
-5.10
-4.82
-4.18
-3.17
-2.03
-1.18
-0.88
-1.05
-1.24
-0.92
0.22
2.06
4.15
5.81
6.64
6.58
5.94
5.29
5.03
5.27
5.72
5.93
5.49
4.31
2.57
0.69
-0.91
-1.99
-2.64
-3.11
-3.76
-4.81
-6.20
-7.74
-9.10
-10.22
-11.19
-12.24
-13.48
-14.78
-15.70
-15.72
-14.60
-12.45
-9.76
-7.25
-5.41
-4.39
-3.95
-3.58
-2.89
-1.80
-0.51
0.60
1.29
1.58
1.71
2.04
2.76
3.83
4.89
5.55
5.52
4.86
3.92
3.14
2.90
3.20
3.75
4.06
3.78
2.86
1.62
0.60
0.20
0.48
1.13
1.50
1.13
-0.12
-1.93
-3.65
-4.79
-5.21
-5.26
-5.55
-6.59
-8.44
-10.71
-12.74
-13.94
-14.02
-13.18
-11.83
-10.48
-9.38
-8.46
-7.44
-6.01
-4.12
-2.01
-0.12
1.12
1.63
1.72
1.92
2.73
4.27
6.24
7.97
8.88
8.76
7.86
6.81
6.18
6.26
6.83
7.45
7.64
7.24
6.43
5.60
5.06
4.90
4.83
4.47
3.49
1.90
0.05
-1.62
-2.70
-3.18
-3.35
-3.63
-4.30
-5.31
-6.28
-6.79
-6.66
-6.10
-5.63
-5.83
-6.94
-8.69
-10.46
-11.48
-11.36
-10.15
-8.40
-6.74
-5.57
-4.86
-4.23
-3.18
-1.46
0.84
3.27
5.32
6.60
7.10
7.17
7.22
7.61
8.26
8.85
8.96
8.32
7.06
5.66
4.72
4.63
5.40
6.67
7.74
8.10
7.50
6.12
4.43
2.90
1.83
1.22
0.88
0.57
0.19
-0.24
-0.61
-0.87
-1.13
-1.65
-2.67
-4.31
-6.37
-8.36
-9.74
-10.02
-9.18
-7.53
-5.65
-4.09
-3.04
-2.34
-1.53
-0.26
1.57
3.63
5.35
6.26
6.25
5.63
5.01
4.85
5.36
6.27
7.10
7.47
7.32
6.93
6.70
6.93
7.60
8.32
8.58
7.97
6.48
4.52
2.63
1.34
0.74
0.53
0.16
-0.79
-2.38
-4.26
-5.92
-6.97
-7.41
-7.55
-7.84
-8.45
-9.18
-9.55
-9.03
-7.51
-5.30
-3.11
-1.57
-0.94
-0.92
-0.84
-0.08
1.58
3.80
5.81
6.94
6.86
5.89
4.79
4.25
4.62
5.61
6.58
6.86
6.21
4.93
3.66
3.04
3.34
4.31
5.39
5.90
5.53
4.38
2.85
1.51
0.62
0.15
-0.24
-0.92
-2.07
-3.56
-5.03
-6.17
-6.91
-7.43
-8.15
-9.28
-10.84
-12.41
-13.40
-13.39
-12.23
-10.28
-8.08
-6.20
-4.87
-3.96
-3.07
-1.84
-0.12
1.90
3.91
5.51
6.59
7.30
7.91
8.76
9.86
11.03
11.91
12.21
11.88
11.22
10.67
10.64
11.25
12.26
13.11
13.31
12.57
11.04
9.22
7.65
6.68
6.27
6.01
5.47
4.46
3.11
1.87
1.11
0.89
0.83
0.34
-1.19
-3.88
-7.37
-10.94
-13.73
-15.27
-15.52
-14.93
-14.08
-13.34
-12.71
-11.92
-10.62
-8.69
-6.31
-4.01
-2.22
-1.21
-0.86
-0.74
-0.43
0.34
1.42
2.50
3.19
3.36
3.20
3.12
3.52
4.54
5.94
7.26
7.91
7.67
6.67
5.34
4.23
3.60
3.38
3.17
2.55
1.36
-0.15
-1.51
-2.27
-2.31
-1.90
-1.60
-1.85
-2.82
-4.27
-5.70
-6.72
-7.19
-7.38
-7.64
-8.24
-9.09
-9.77
-9.78
-8.81
-6.92
-4.57
-2.33
-0.74
0.11
0.43
0.63
1.09
1.87
2.75
3.33
3.34
2.85
2.20
1.86
2.11
2.94
4.02
4.86
5.16
4.83
4.14
3.54
3.39
3.79
4.49
5.01
4.93
4.07
2.67
1.25
0.31
0.14
0.59
1.22
1.45
0.95
-0.30
-2.00
-3.72
-5.18
-6.34
-7.30
-8.20
-8.99
-9.41
-9.10
-7.86
-5.75
-3.15
-0.70
1.12
2.11
2.45
2.67
3.18
4.14
5.32
6.27
6.60
6.23
5.45
4.75
4.54
4.95
5.73
6.50
6.82
6.60
6.00
5.34
4.97
4.93
5.08
5.04
4.54
3.56
2.38
1.42
1.01
1.18
1.64
1.82
1.28
-0.18
-2.41
-4.86
-7.05
-8.67
-9.77
-10.64
-11.56
-12.53
-13.27
-13.29
-12.22
-10.05
-7.20
-4.35
-2.23
-1.13
-0.87
-0.93
-0.68
0.12
1.36
2.59
3.32
3.39
3.04
2.71
2.85
3.53
4.53
5.30
5.48
4.98
4.06
3.24
2.89
3.15
3.75
4.34
4.52
4.19
3.53
2.89
2.64
2.96
3.72
4.65
5.30
5.43
5.04
4.31
3.60
3.05
2.60
1.96
0.82
-0.91
-2.98
-4.91
-6.22
-6.64
-6.17
-5.21
-4.15
-3.41
-3.19
-3.42
-3.91
-4.45
-4.85
-5.11
-5.26
-5.39
-5.52
-5.57
-5.48
-5.19
-4.81
-4.50
-4.49
-4.84
-5.41
-5.93
-6.09
-5.82
-5.26
-4.74
-4.56
-4.77
-5.15
-5.29
-4.92
-3.96
-2.70
-1.70
-1.36
-1.87
-3.02
-4.32
-5.34
-5.87
-6.07
-6.34
-6.97
-8.07
-9.36
-10.37
-10.68
-10.08
-8.77
-7.12
-5.63
-4.54
-3.81
-3.21
-2.36
-1.14
0.33
1.67
2.52
2.75
2.60
2.54
3.02
4.18
5.77
7.15
7.79
7.42
6.25
4.91
3.94
3.65
3.87
4.11
3.92
3.13
1.95
0.86
0.26
0.31
0.77
1.21
1.15
0.42
-0.80
-2.15
-3.24
-4.02
-4.69
-5.65
-7.10
-8.80
-10.14
-10.36
-9.00
-6.21
-2.68
0.49
2.57
3.34
3.24
3.09
3.53
4.72
6.31
7.67
8.35
8.30
7.88
7.60
7.81
8.49
9.25
9.62
9.22
8.07
6.57
5.27
4.66
4.85
5.55
6.18
6.22
5.43
4.02
2.48
1.32
0.80
0.84
0.93
0.67
-0.20
-1.56
-2.97
-4.11
-4.84
-5.40
-6.23
-7.60
-9.34
-10.86
-11.42
-10.49
-8.11
-4.90
-1.79
0.38
1.29
1.24
0.86
0.87
1.59
2.91
4.35
5.40
5.81
5.77
5.71
6.11
7.13
8.56
9.78
10.28
9.77
8.45
6.91
5.66
4.95
4.62
4.25
3.48
2.28
0.94
-0.08
-0.43
-0.12
0.50
0.96
0.83
0.07
-1.07
-2.21
-3.01
-3.48
-3.91
-4.75
-6.26
-8.27
-10.19
-11.27
-10.99
-9.35
-6.82
-4.26
-2.30
-1.21
-0.82
-0.60
-0.18
0.58
1.48
2.23
2.63
2.75
2.84
3.18
3.90
4.88
5.75
6.17
5.90
5.05
4.02
3.28
3.11
3.43
3.77
3.59
2.58
0.86
-1.02
-2.41
-2.92
-2.58
-1.84
-1.35
-1.51
-2.41
-3.79
-5.17
-6.24
-6.88
-7.23
-7.46
-7.61
-7.52
-6.95
-5.76
-4.00
-1.92
0.04
1.52
2.33
2.52
2.38
2.24
2.37
2.78
3.35
3.80
3.96
3.80
3.53
3.44
3.75
4.48
5.39
6.01
6.08
5.47
4.39
3.23
2.26
1.60
1.09
0.50
-0.30
-1.21
-1.99
-2.38
-2.31
-1.97
-1.81
-2.18
-3.33
-5.09
-6.92
-8.18
-8.33
-7.31
-5.50
-3.61
-2.23
-1.60
-1.43
-1.16
-0.31
1.27
3.24
4.92
5.84
5.84
5.21
4.57
4.35
4.66
5.21
5.62
5.64
5.41
5.33
5.78
6.89
8.39
9.66
10.16
9.60
8.14
6.30
4.61
3.46
2.83
2.44
1.87
0.87
-0.48
-1.87
-2.87
-3.28
-3.24
-3.17
-3.62
-4.82
-6.63
-8.47
-9.56
-9.40
-7.95
-5.69
-3.34
-1.48
-0.29
0.48
1.28
2.47
4.08
5.71
6.89
7.24
6.78
5.97
5.33
5.28
5.80
6.52
6.94
6.77
6.08
5.27
4.87
5.15
6.01
7.05
7.64
7.48
6.62
5.49
4.65
4.39
4.65
4.96
4.84
4.02
2.68
1.30
0.32
-0.09
-0.12
-0.30
-1.05
-2.51
-4.35
-5.93
-6.67
-6.26
-4.93
-3.24
-1.85
-1.18
-1.26
-1.74
-2.14
-2.10
-1.56
-0.71
0.09
0.62
0.83
0.86
0.98
1.33
1.94
2.70
3.49
4.27
5.09
6.00
6.93
7.72
8.10
7.79
6.71
4.92
2.69
0.40
-1.63
-3.22
-4.41
-5.43
-6.63
-8.21
-10.13
-12.10
-13.64
-14.32
-13.98
-12.70
-10.92
-9.07
-7.45
-6.15
-4.95
-3.71
-2.30
-0.85
0.46
1.49
2.25
2.94
3.79
4.93
6.30
7.51
8.18
7.96
6.83
5.13
3.32
1.87
0.94
0.39
-0.15
-1.03
-2.31
-3.77
-5.00
-5.70
-5.88
-5.86
-6.20
-7.24
-9.02
-11.22
-13.33
-15.03
-16.33
-17.50
-18.81
-20.25
-21.44
-21.78
-20.81
-18.51
-15.31
-12.03
-9.35
-7.63
-6.70
-6.01
-5.04
-3.51
-1.60
0.25
1.59
2.24
2.35
2.30
2.49
3.05
3.81
4.43
4.53
4.07
3.29
2.59
2.42
2.80
3.41
3.70
3.37
2.59
2.13
2.98
5.84
10.71
16.74
22.51
26.68
28.44
27.77
25.30
21.86
18.16
14.54
11.04
7.65
4.45
1.68
-0.37
-1.54
-1.85
-1.55
-0.98
-0.51
-0.23
-0.13
-0.08
0.14
0.59
1.20
1.77
2.15
2.27
2.27
2.43
3.01
4.15
5.75
7.40
8.65
9.15
8.84
8.03
7.16
6.62
6.49
6.52
6.34
5.67
4.52
3.15
1.92
1.08
0.65
0.54
0.51
0.54
0.75
1.36
2.64
4.58
7.01
9.58
12.00
14.14
16.12
18.21
20.60
23.33
26.20
28.76
30.67
31.69
31.90
31.58
30.97
30.25
29.31
27.94
25.97
23.47
20.74
18.18
16.13
14.69
13.60
12.54
11.15
9.39
7.46
5.74
4.64
4.30
4.64
5.36
6.19
7.05
8.09
9.61
11.79
14.58
17.71
20.69
23.19
25.07
26.47
27.77
29.28
31.14
33.25
35.35
37.21
38.74
40.07
41.43
42.97
44.65
46.15
47.01
46.76
45.20
42.48
39.01
35.33
31.72
28.20
24.56
20.53
16.04
11.25
6.48
2.04
-1.99
-5.73
-9.52
-13.60
-18.08
-22.79
-27.43
-31.72
-35.52
-38.88
-41.99
-45.01
-47.92
-50.50
-52.38
-53.27
-53.07
-51.98
-50.41
-48.80
-47.36
-46.07
-44.73
-43.13
-41.35
-39.60
-38.18
-37.24
-36.58
-35.76
-34.37
-32.26
-29.70
-27.26
-25.60
-25.05
-25.51
-26.46
-27.18
-27.21
-26.47
-25.35
-24.50
-24.46
-25.43
-27.15
-29.07
-30.65
-31.63
-32.09
-32.39
-32.88
-33.62
-34.30
-34.45
-33.60
-31.70
-29.12
-26.47
-24.28
-22.71
-21.42
-19.82
-17.42
-14.12
-10.24
-6.48
-3.43
-1.42
-0.32
0.28
0.78
1.37
1.89
2.01
1.47
0.26
-1.27
-2.57
-3.16
-2.85
-1.88
-0.73
0.02
0.07
-0.56
-1.58
-2.62
-3.58
-4.60
-6.02
-8.05
-10.59
-13.17
-15.19
-16.31
-16.65
-16.78
-17.50
-19.28
-22.13
-25.45
-28.34
-30.06
-30.29
-29.23
-27.43
-25.41
-23.47
-21.59
-19.63
-17.46
-15.05
-12.56
-10.10
-7.74
-5.40
-2.90
-0.19
2.70
5.47
7.79
9.37
10.16
10.39
10.45
10.77
11.54
12.68
13.86
14.57
14.53
13.71
12.42
11.17
10.32
9.99
9.89
9.65
9.04
8.13
7.28
6.84
6.97
7.43
7.72
7.32
5.97
3.82
1.37
-0.77
-2.14
-2.67
-2.61
-2.38
-2.33
-2.53
-2.73
-2.60
-1.86
-0.50
1.19
2.66
3.54
3.71
3.42
3.15
3.28
3.99
5.06
6.11
6.78
6.92
6.65
6.28
6.08
6.19
6.46
6.65
6.48
5.82
4.81
3.66
2.66
1.94
1.42
0.89
0.11
-0.97
-2.19
-3.25
-3.88
-3.99
-3.74
-3.46
-3.34
-3.39
-3.38
-2.91
-1.80
-0.12
1.68
3.07
3.69
3.53
2.84
2.06
1.47
1.17
1.00
0.81
0.52
0.22
0.17
0.52
1.32
2.37
3.30
3.76
3.57
2.90
2.11
1.68
1.88
2.66
3.67
4.38
4.39
3.61
2.27
0.84
-0.31
-1.00
-1.38
-1.69
-2.12
-2.63
-3.02
-3.06
-2.66
-1.98
-1.41
-1.30
-1.85
-2.88
-3.89
-4.43
-4.14
-3.12
-1.76
-0.54
0.26
0.67
0.99
1.58
2.55
3.79
4.94
5.59
5.57
4.91
3.86
2.77
1.84
1.15
0.53
-0.22
-1.21
-2.41
-3.62
-4.62
-5.33
-5.86
-6.59
-7.82
-9.71
-11.99
-14.03
-15.18
-15.04
-13.79
-12.02
-10.55
-9.86
-9.93
-10.21
-10.00
-8.88
-6.88
-4.46
-2.32
-0.86
-0.15
0.04
0.04
0.06
0.13
0.26
0.53
1.23
2.63
4.80
7.44
9.95
11.67
12.13
11.36
9.72
7.78
6.07
4.80
3.97
3.32
2.64
1.84
1.02
0.46
0.45
1.12
2.35
3.76
4.81
4.94
3.91
1.82
-0.83
-3.27
-4.91
-5.48
-5.15
-4.41
-3.76
-3.42
-3.26
-2.93
-2.09
-0.72
0.81
2.01
2.47
2.20
1.64
1.31
1.64
2.56
3.62
4.26
4.15
3.45
2.76
2.82
4.14
6.73
10.17
13.71
16.72
18.88
20.18
20.87
21.04
20.70
19.72
18.07
16.00
14.01
12.64
12.11
12.21
12.30
11.54
9.37
5.71
1.08
-3.57
-7.38
-9.81
-10.90
-11.24
-11.56
-12.41
-13.86
-15.50
-16.70
-16.93
-16.03
-14.16
-11.84
-9.54
-7.71
-6.64
-6.51
-7.41
-9.29
-11.89
-14.73
-17.19
-18.69
-18.90
-17.84
-15.81
-13.22
-10.61
-8.29
-6.54
-5.48
-5.02
-5.06
-5.38
-5.81
-6.14
-6.25
-6.06
-5.51
-4.63
-3.54
-2.48
-1.81
-1.80
-2.66
-4.32
-6.39
-8.21
-8.91
-7.83
-4.70
0.11
5.71
11.05
15.33
18.28
20.24
21.81
23.44
25.02
26.10
26.08
24.70
22.31
19.60
17.40
16.10
15.60
15.41
15.01
14.14
12.88
11.57
10.52
9.76
9.06
7.93
6.04
3.39
0.33
-2.51
-4.66
-5.94
-6.66
-7.34
-8.48
-10.21
-12.24
-14.08
-15.25
-15.56
-15.20
-14.50
-13.76
-13.03
-12.14
-10.89
-9.21
-7.30
-5.58
-4.36
-3.71
-3.31
-2.66
-1.32
0.89
3.67
6.56
8.93
10.47
11.23
11.55
11.97
12.83
14.14
15.60
16.82
17.56
17.89
18.12
18.58
19.39
20.40
21.17
21.32
20.71
19.50
18.07
16.68
15.41
14.03
12.28
10.11
7.81
5.97
5.12
5.57
7.16
9.29
11.38
12.91
13.83
14.39
15.00
16.00
17.38
18.82
19.86
20.20
19.96
19.70
20.22
22.20
25.83
30.66
35.66
39.74
42.09
42.63
42.08
41.54
42.11
44.38
48.29
53.15
57.78
60.68
60.08
54.17
41.45
21.27
-5.63
-37.18
-70.30
-101.89
-129.67
-152.47
-170.10
-182.55
-189.55
-190.46
-184.85
-173.13
-156.96
-138.83
-121.13
-105.24
-91.09
-77.41
-62.78
-46.50
-28.99
-11.75
3.36
14.68
21.32
23.26
21.34
17.28
13.52
12.92
18.11
30.56
49.98
74.15
99.60
122.68
140.59
152.06
157.28
157.36
153.72
147.53
139.53
130.19
119.99
109.60
99.89
91.65
85.24
80.28
75.71
70.11
62.33
52.11
40.33
28.66
18.92
12.18
8.39
6.47
4.91
2.56
-0.85
-4.81
-8.44
-11.14
-12.87
-14.00
-14.87
-15.40
-15.06
-13.26
-9.84
-5.33
-0.84
2.42
3.56
2.30
-1.15
-6.25
-12.31
-18.63
-24.43
-28.99
-31.83
-32.91
-32.73
-32.18
-32.19
-33.36
-35.75
-38.97
-42.45
-45.67
-48.39
-50.61
-52.46
-54.13
-55.79
-57.63
-59.79
-62.37
-65.37
-68.65
-72.03
-75.40
-78.77
-82.20
-85.51
-88.03
-88.54
-85.67
-78.62
-67.87
-55.42
-44.32
-37.50
-36.52
-40.83
-48.03
-54.94
-59.14
-59.88
-58.12
-55.81
-54.78
-56.10
-60.10
-66.70
-75.74
-86.85
-99.19
-111.33
-121.65
-129.10
-133.51
-135.32
-134.47
-129.40
-116.90
-93.23
-56.17
-6.82
49.72
105.40
151.75
182.75
197.13
198.87
195.92
197.76
212.38
244.02
292.03
351.34
414.16
472.10
518.09
547.47
558.31
551.10
528.20
493.17
450.12
403.09
355.36
309.10
265.18
223.37
182.72
142.17
101.15
59.83
19.09
-19.95
-56.42
-90.41
-123.13
-156.69
-192.95
-232.21
-272.37
-308.88
-336.30
-350.20
-348.99
-334.38
-310.45
-281.92
-252.43
-223.90
-196.93
-171.65
-148.51
-128.27
-111.54
-98.36
-88.04
-79.67
-72.56
-66.46
-61.42
-57.45
-54.23
-51.16
-47.62
-43.36
-38.50
-33.61
-29.14
-25.43
-22.48
-20.08
-18.09
-16.50
-15.51
-15.30
-15.91
-17.21
-19.05
-21.41
-24.43
-28.20
-32.50
-36.54
-39.30
-39.79
-37.64
-33.37
-28.14
-23.40
-20.26
-19.20
-20.01
-22.04
-24.52
-26.74
-28.25
-28.80
-28.28
-26.82
-24.50
-21.46
-17.81
-13.73
-9.61
-5.97
-3.31
-1.78
-1.04
-0.30
1.20
3.81
7.14
10.23
11.93
11.61
9.29
5.80
2.31
-0.22
-1.38
-1.47
-1.21
-1.31
-2.12
-3.46
-4.90
-5.98
-6.60
-7.00
-7.65
-9.02
-11.13
-13.64
-15.87
-17.09
-16.95
-15.53
-13.40
-11.26
-9.59
-8.49
-7.68
-6.68
-5.22
-3.28
-1.24
0.47
1.48
1.79
1.69
1.56
1.77
2.35
3.16
3.92
4.48
4.93
5.61
6.88
8.92
11.52
14.23
16.39
17.70
18.28
18.72
19.83
22.12
25.62
29.76
33.65
36.49
37.84
37.74
36.52
34.60
32.29
29.61
26.54
22.96
19.04
15.13
11.72
9.28
7.85
7.15
6.60
5.71
4.31
2.68
1.28
0.50
0.23
-0.05
-1.09
-3.36
-6.84
-11.15
-15.66
-20.07
-24.42
-29.01
-33.98
-39.02
-43.42
-46.39
-47.45
-46.74
-44.89
-42.85
-41.28
-40.46
-40.09
-39.60
-38.51
-36.57
-33.96
-31.11
-28.43
-26.12
-24.07
-22.03
-19.73
-17.20
-14.74
-12.80
-11.86
-11.99
-12.95
-14.23
-15.27
-15.86
-16.02
-16.01
-16.03
-15.97
-15.44
-14.02
-11.50
-8.11
-4.46
-1.33
0.75
1.68
1.83
1.90
2.41
3.62
5.31
6.98
8.16
8.61
8.43
7.95
7.57
7.50
7.69
8.01
8.21
8.33
8.57
9.24
10.59
12.48
14.44
15.88
16.28
15.55
13.99
12.15
10.49
9.18
8.10
6.87
5.21
2.99
0.40
-2.14
-4.29
-5.83
-6.91
-7.88
-9.10
-10.68
-12.34
-13.45
-13.40
-11.89
-9.17
-5.88
-2.89
-0.78
0.30
0.65
0.83
1.18
1.78
2.36
2.55
2.16
1.35
0.51
0.13
0.45
1.40
2.47
3.13
2.96
2.00
0.68
-0.43
-0.89
-0.67
-0.16
0.15
-0.08
-0.82
-1.73
-2.33
-2.34
-1.81
-1.09
-0.68
-0.85
-1.61
-2.70
-3.69
-4.43
-5.01
-5.72
-6.86
-8.45
-10.10
-11.20
-11.18
-9.77
-7.19
-4.07
-1.10
1.16
2.60
3.56
4.46
5.71
7.32
9.02
10.33
10.99
11.07
11.03
11.49
12.83
15.05
17.70
20.06
21.61
22.19
22.01
21.54
20.97
20.22
18.89
16.59
13.26
9.30
5.36
2.07
-0.28
-1.86
-3.23
-4.92
-7.25
-10.15
-13.22
-16.08
-18.43
-20.27
-21.72
-22.83
-23.48
-23.45
-22.49
-20.57
-17.93
-15.09
-12.55
-10.72
-9.61
-8.93
-8.24
-7.13
-5.58
-3.83
-2.37
-1.53
-1.32
-1.35
-1.09
-0.16
1.42
3.22
4.61
5.21
4.98
4.29
3.73
3.67
4.15
4.80
5.08
4.68
3.59
2.21
1.06
0.48
0.45
0.55
0.26
-0.89
-2.93
-5.49
-7.97
-9.72
-10.45
-10.18
-9.24
-7.97
-6.55
-5.00
-3.19
-1.07
1.27
3.62
5.59
7.00
7.77
8.04
8.13
8.30
8.70
9.25
9.71
9.85
9.57
8.97
8.35
8.01
8.09
8.46
8.83
8.81
8.27
7.28
6.15
5.23
4.61
4.15
3.47
2.28
0.55
-1.38
-3.02
-3.95
-4.11
-3.79
-3.58
-3.94
-5.05
-6.68
-8.27
-9.29
-9.39
-8.66
-7.39
-5.98
-4.66
-3.47
-2.25
-0.82
0.85
2.60
4.12
5.08
5.41
5.34
5.29
5.68
6.61
7.87
8.98
9.56
9.52
9.18
9.03
9.42
10.36
11.53
12.35
12.40
11.58
10.10
8.47
7.08
6.10
5.40
4.64
3.50
1.92
0.11
-1.50
-2.52
-2.84
-2.67
-2.44
-2.68
-3.60
-5.15
-7.10
-9.06
-10.85
-12.42
-13.75
-14.73
-15.10
-14.51
-12.75
-9.88
-6.32
-2.65
0.38
2.38
3.22
3.17
2.81
2.68
3.20
4.44
6.15
7.94
9.46
10.58
11.37
12.09
12.91
13.78
14.52
14.78
14.43
13.56
12.50
11.64
11.12
10.81
10.35
9.35
7.73
5.73
3.84
2.43
1.60
1.10
0.39
-0.88
-2.83
-5.17
-7.30
-8.76
-9.27
-8.90
-7.96
-6.80
-5.60
-4.36
-2.90
-1.04
1.24
3.71
5.97
7.57
8.27
8.17
7.64
7.20
7.16
7.53
8.02
8.24
7.98
7.37
6.83
6.77
7.44
8.70
10.05
11.03
11.31
10.90
10.19
9.49
8.92
8.32
7.36
5.88
4.07
2.42
1.51
1.62
2.56
3.64
4.13
3.43
1.55
-1.00
-3.50
-5.22
-5.86
-5.55
-4.69
-3.73
-2.89
-2.10
-1.13
0.17
1.72
3.21
4.21
4.49
4.16
3.60
3.32
3.60
4.39
5.34
6.00
6.14
5.85
5.46
5.36
5.70
6.40
7.07
7.34
6.95
5.99
4.81
3.82
3.35
3.34
3.45
3.22
2.33
0.84
-0.83
-2.11
-2.63
-2.35
-1.60
-1.00
-1.00
-1.84
-3.36
-5.12
-6.67
-7.64
-7.91
-7.62
-6.98
-6.22
-5.46
-4.68
-3.77
-2.65
-1.43
-0.29
0.46
0.77
0.81
0.93
1.58
2.87
4.62
6.35
7.64
8.31
8.57
8.83
9.42
10.37
11.45
12.18
12.25
11.63
10.64
9.75
9.31
9.36
9.64
9.70
9.25
8.25
6.99
5.89
5.28
5.22
5.39
5.39
4.82
3.61
2.03
0.43
-0.88
-1.93
-2.97
-4.32
-6.01
-7.69
-8.76
-8.65
-7.22
-4.86
-2.30
-0.38
0.47
0.31
-0.41
-1.03
-1.13
-0.62
0.18
0.86
1.15
1.12
1.12
1.54
2.61
4.19
5.78
6.86
7.07
6.49
5.60
4.97
4.99
5.53
6.07
5.95
4.81
2.79
0.53
-1.22
-1.90
-1.51
-0.48
0.44
0.71
0.08
-1.26
-2.81
-4.10
-4.81
-4.89
-4.47
-3.68
-2.58
-1.15
0.64
2.75
4.95
6.86
8.18
8.73
8.63
8.26
7.97
8.02
8.28
8.45
8.16
7.25
5.94
4.75
4.22
4.59
5.70
7.04
7.93
8.00
7.25
6.03
4.89
4.08
3.55
2.94
1.91
0.40
-1.26
-2.53
-2.97
-2.54
-1.57
-0.79
-0.74
-1.77
-3.71
-6.07
-8.28
-9.88
-10.73
-10.95
-10.81
-10.46
-9.94
-9.13
-7.87
-6.14
-4.15
-2.19
-0.65
0.40
1.10
1.77
2.77
4.08
5.46
6.42
6.60
5.99
4.96
4.09
3.83
4.31
5.31
6.29
6.84
6.68
5.91
4.85
3.81
3.04
2.48
1.95
1.20
0.21
-0.89
-1.79
-2.20
-2.05
-1.56
-1.10
-1.14
-1.85
-3.19
-4.90
-6.61
-8.18
-9.65
-11.19
-12.87
-14.54
-15.76
-16.05
-15.10
-13.01
-10.23
-7.50
-5.39
-4.25
-3.95
-4.02
-3.96
-3.42
-2.44
-1.34
-0.57
-0.36
-0.65
-1.06
-1.10
-0.47
0.81
2.42
3.78
4.57
4.72
4.48
4.34
4.48
4.85
5.04
4.64
3.52
1.96
0.49
-0.36
-0.39
0.21
0.89
1.22
0.99
0.39
-0.15
-0.30
0.02
0.49
0.58
-0.19
-1.88
-4.13
-6.23
-7.43
-7.29
-5.89
-3.71
-1.55
0.02
0.79
0.98
1.08
1.44
2.07
2.68
2.93
2.74
2.40
2.40
3.15
4.66
6.54
8.07
8.74
8.39
7.31
6.12
5.28
5.04
5.25
5.56
5.61
5.25
4.58
3.85
3.33
3.15
3.17
3.16
2.75
1.86
0.60
-0.74
-1.79
-2.49
-2.97
-3.53
-4.36
-5.32
-6.00
-5.90
-4.75
-2.69
-0.16
2.14
3.73
4.41
4.37
4.05
3.87
4.05
4.54
5.06
5.33
5.25
5.00
4.88
5.22
6.04
7.10
7.95
8.15
7.60
6.52
5.36
4.64
4.49
4.74
4.94
4.69
3.88
2.75
1.71
1.15
1.09
1.28
1.11
0.14
-1.85
-4.61
-7.53
-9.99
-11.52
-12.11
-12.05
-11.80
-11.63
-11.54
-11.23
-10.36
-8.77
-6.66
-4.42
-2.55
-1.25
-0.43
0.27
1.27
2.75
4.55
6.28
7.53
8.18
8.43
8.70
9.26
10.16
11.14
11.65
11.37
10.22
8.47
6.62
5.01
3.76
2.67
1.47
-0.02
-1.78
-3.58
-5.16
-6.36
-7.21
-7.90
-8.62
-9.59
-10.83
-12.26
-13.72
-15.02
-16.12
-17.07
-17.95
-18.78
-19.41
-19.53
-18.82
-17.18
-14.82
-12.16
-9.76
-7.93
-6.68
-5.71
-4.48
-2.70
-0.35
2.19
4.32
5.57
5.80
5.28
4.49
3.95
3.89
4.20
4.64
4.91
4.99
5.02
5.27
5.91
6.81
7.65
8.02
7.75
6.96
6.06
5.51
5.56
6.10
6.74
6.91
6.32
5.04
3.45
2.15
1.44
1.32
1.40
1.21
0.56
-0.37
-1.05
-0.94
0.21
2.18
4.35
6.08
6.87
6.75
6.10
5.42
5.12
5.21
5.41
5.35
4.83
4.03
3.38
3.31
4.02
5.23
6.39
6.81
6.17
4.56
2.51
0.75
-0.23
-0.27
0.31
0.99
1.31
1.13
0.62
0.16
0.10
0.49
1.03
1.30
0.82
-0.54
-2.50
-4.56
-6.08
-6.76
-6.63
-6.08
-5.57
-5.27
-5.07
-4.53
-3.29
-1.24
1.30
3.60
5.03
5.24
4.35
2.98
1.74
1.08
1.03
1.27
1.44
1.37
1.18
1.18
1.63
2.55
3.60
4.30
4.26
3.43
2.12
0.82
-0.01
-0.31
-0.35
-0.60
-1.45
-2.88
-4.56
-6.00
-6.85
-7.07
-6.91
-6.78
-6.88
-7.18
-7.37
-7.01
-5.97
-4.36
-2.61
-1.18
-0.38
-0.13
-0.07
0.22
1.03
2.31
3.68
4.69
4.98
4.55
3.73
2.97
2.65
2.75
2.95
2.83
2.11
0.90
-0.37
-1.17
-1.10
-0.20
1.21
2.48
3.16
3.01
2.21
1.26
0.59
0.47
0.79
1.18
1.24
0.77
-0.15
-1.22
-2.14
-2.76
-3.18
-3.58
-4.18
-4.94
-5.65
-6.00
-5.72
-4.80
-3.54
-2.32
-1.49
-1.10
-0.93
-0.55
0.39
1.95
3.87
5.55
6.57
6.78
6.42
6.06
6.15
6.85
7.90
8.88
9.55
10.06
10.91
12.65
15.49
19.06
22.43
24.63
25.01
23.58
21.03
18.25
15.89
14.01
12.09
9.36
5.35
0.16
-5.57
-11.01
-15.54
-19.08
-21.95
-24.73
-27.72
-30.80
-33.55
-35.33
-35.85
-35.22
-33.92
-32.60
-31.62
-30.97
-30.23
-28.86
-26.50
-23.19
-19.45
-15.90
-13.09
-11.14
-9.74
-8.41
-6.79
-4.90
-3.13
-1.98
-1.71
-2.15
-2.82
-3.15
-2.81
-1.90
-0.79
0.03
0.37
0.38
0.45
0.98
2.02
3.33
4.43
4.88
4.51
3.43
1.99
0.54
-0.66
-1.51
-2.04
-2.26
-2.19
-1.79
-1.03
0.03
1.29
2.48
3.33
3.64
3.36
2.73
2.12
2.01
2.73
4.27
6.35
8.45
10.15
11.27
11.93
12.54
13.35
14.37
15.32
15.77
15.47
14.48
13.14
11.89
11.00
10.43
9.80
8.69
6.84
4.38
1.73
-0.64
-2.35
-3.38
-3.98
-4.44
-4.90
-5.20
-5.03
-4.14
-2.52
-0.47
1.62
3.35
4.62
5.57
6.38
7.19
7.79
7.83
6.88
4.74
1.58
-2.07
-5.52
-8.18
-9.81
-10.52
-10.79
-11.09
-11.79
-12.95
-14.30
-15.55
-16.42
-16.85
-16.95
-16.83
-16.49
-15.76
-14.48
-12.66
-10.60
-8.94
-8.37
-9.47
-12.17
-15.78
-19.12
-20.81
-19.99
-16.50
-10.99
-4.60
1.59
6.88
11.07
14.26
16.63
18.33
19.28
19.57
19.32
18.80
18.25
17.68
16.93
15.70
13.83
11.41
8.83
6.59
5.04
4.20
3.79
3.31
2.41
0.94
-0.85
-2.45
-3.41
-3.39
-2.50
-1.13
0.18
1.02
1.29
1.24
1.23
1.55
2.17
2.86
3.16
2.81
1.77
0.39
-0.77
-1.29
-1.01
-0.18
0.63
0.88
0.24
-1.21
-3.04
-4.71
-5.77
-6.07
-5.74
-5.11
-4.35
-3.53
-2.58
-1.44
-0.34
0.27
-0.19
-2.06
-5.19
-8.85
-11.95
-13.54
-13.12
-10.87
-7.60
-4.25
-1.65
-0.10
0.61
0.89
1.13
1.37
1.32
0.60
-1.01
-3.35
-5.88
-7.99
-9.22
-9.57
-9.39
-9.29
-9.67
-10.63
-11.98
-13.27
-14.25
-14.80
-15.04
-15.00
-14.50
-13.13
-10.50
-6.46
-1.40
3.96
8.68
12.18
14.30
15.40
16.08
16.77
17.65
18.62
19.52
20.36
21.39
22.89
24.92
27.09
28.62
28.59
26.42
22.02
16.10
9.84
4.48
0.96
-0.51
-0.25
1.03
2.66
4.26
5.75
7.26
8.79
10.13
10.88
10.52
8.71
5.39
0.92
-4.03
-8.63
-12.05
-13.69
-13.31
-11.03
-7.32
-2.82
1.75
5.67
8.35
9.32
8.48
6.00
2.56
-0.88
-3.32
-3.97
-2.69
0.02
3.16
5.70
7.01
7.11
6.55
6.09
6.25
7.10
8.16
8.78
8.47
7.16
5.31
3.52
2.36
1.94
2.01
2.08
1.67
0.55
-1.31
-3.67
-6.20
-8.48
-10.02
-10.45
-9.57
-7.61
-5.22
-3.37
-3.13
-5.14
-9.36
-14.96
-20.55
-24.66
-26.32
-25.39
-22.53
-18.89
-15.75
-13.87
-13.47
-14.15
-15.17
-15.78
-15.39
-13.79
-11.06
-7.48
-3.38
0.85
4.87
8.35
11.02
12.69
13.36
13.14
12.35
11.37
10.47
9.73
8.92
7.68
5.71
3.04
0.10
-2.34
-3.47
-2.85
-0.62
2.57
5.63
7.72
8.41
7.90
6.87
6.02
5.79
6.11
6.55
6.60
5.99
4.86
3.63
2.86
2.92
3.83
5.31
6.84
8.04
8.75
9.06
9.25
9.41
9.43
9.00
7.87
6.06
3.99
2.29
1.53
1.84
2.90
3.94
4.27
3.50
1.73
-0.51
-2.71
-4.49
-5.80
-6.75
-7.40
-7.62
-7.13
-5.72
-3.39
-0.53
2.23
4.34
5.47
5.79
5.71
5.71
6.12
6.86
7.64
8.05
7.95
7.48
7.05
7.12
7.90
9.24
10.75
11.81
12.09
11.60
10.71
10.02
9.86
10.25
10.72
10.68
9.72
7.95
5.89
4.28
3.61
3.91
4.69
5.26
4.99
3.75
1.76
-0.49
-2.54
-4.22
-5.59
-6.76
-7.74
-8.24
-7.85
-6.30
-3.65
-0.40
2.79
5.18
6.52
6.89
6.78
6.72
7.00
7.60
8.13
8.13
7.29
5.64
3.49
1.35
-0.42
-1.70
-2.73
-3.92
-5.68
-8.05
-10.76
-13.31
-15.19
-16.28
-16.83
-17.35
-18.29
-19.69
-21.20
-22.21
-22.28
-21.35
-19.80
-18.31
-17.35
-17.11
-17.34
-17.59
-17.61
-17.35
-17.10
-17.16
-17.55
-17.93
-17.71
-16.39
-13.81
-10.29
-6.57
-3.35
-1.13
0.07
0.65
1.12
1.91
3.08
4.39
5.44
5.97
5.98
5.77
5.74
6.16
7.05
8.13
8.88
9.01
8.49
7.64
6.98
6.85
7.26
7.87
8.19
7.93
7.16
6.28
5.72
5.72
6.16
6.55
6.48
5.65
4.20
2.61
1.36
0.86
1.05
1.62
2.05
2.04
1.62
1.15
1.09
1.69
2.87
4.17
4.95
4.88
3.95
2.58
1.43
0.94
1.18
1.80
2.25
2.11
1.31
0.21
-0.65
-0.87
-0.34
0.60
1.43
1.65
1.09
-0.03
-1.31
-2.32
-2.90
-3.18
-3.50
-4.09
-4.96
-5.84
-6.36
-6.30
-5.73
-5.01
-4.59
-4.69
-5.19
-5.66
-5.57
-4.63
-2.89
-0.77
1.17
2.56
3.31
3.68
4.05
4.69
5.66
6.63
7.27
7.22
6.54
5.63
4.97
5.02
5.76
6.83
7.61
7.69
7.00
5.94
5.05
4.71
4.90
5.27
5.29
4.70
3.57
2.27
1.31
0.84
0.70
0.41
-0.50
-2.24
-4.57
-6.97
-8.86
-9.92
-10.22
-10.22
-10.47
-11.46
-13.28
-15.65
-18.11
-20.16
-21.57
-22.30
-22.50
-22.22
-21.39
-19.76
-17.13
-13.52
-9.26
-4.95
-1.28
1.37
2.97
3.84
4.56
5.54
6.91
8.44
9.75
10.53
10.68
10.41
10.04
9.80
9.79
9.82
9.67
9.14
8.21
7.11
6.07
5.32
4.86
4.53
4.09
3.36
2.38
1.44
0.86
0.86
1.37
2.05
2.29
1.68
0.12
-2.12
-4.46
-6.45
-7.90
-8.95
-9.90
-10.89
-11.73
-12.01
-11.33
-9.62
-7.21
-4.79
-2.95
-2.06
-2.03
-2.39
-2.69
-2.65
-2.43
-2.38
-2.84
-3.88
-5.21
-6.34
-6.81
-6.46
-5.50
-4.38
-3.61
-3.38
-3.60
-3.87
-3.73
-3.02
-1.88
-0.77
-0.16
-0.24
-0.80
-1.41
-1.68
-1.54
-1.27
-1.30
-1.84
-2.76
-3.57
-3.69
-2.92
-1.42
0.24
1.45
1.91
1.80
1.68
2.20
3.74
6.23
9.15
11.77
13.34
13.56
12.53
10.70
8.65
6.66
4.69
2.46
-0.28
-3.41
-6.43
-8.66
-9.62
-9.29
-8.14
-6.96
-6.33
-6.47
-7.10
-7.63
-7.64
-6.96
-5.84
-4.72
-3.96
-3.62
-3.54
-3.35
-2.83
-2.03
-1.22
-0.81
-1.16
-2.31
-3.97
-5.63
-6.70
-6.85
-6.07
-4.68
-3.08
-1.56
-0.18
1.20
2.73
4.42
6.08
7.33
7.94
7.83
7.24
6.59
6.21
6.29
6.59
6.75
6.38
5.34
3.81
2.23
1.04
0.46
0.40
0.48
0.29
-0.37
-1.40
-2.53
-3.39
-3.97
-4.45
-5.26
-6.66
-8.56
-10.56
-12.11
-12.88
-12.94
-12.65
-12.59
-13.04
-13.94
-14.86
-15.21
-14.62
-13.06
-10.96
-8.94
-7.57
-7.15
-7.59
-8.47
-9.30
-9.63
-9.29
-8.33
-7.00
-5.51
-3.96
-2.34
-0.53
1.35
3.04
4.15
4.40
3.87
3.06
2.68
3.34
5.20
7.84
10.36
11.91
11.89
10.32
7.65
4.42
1.03
-2.50
-6.36
-10.67
-15.22
-19.46
-22.66
-24.24
-23.99
-22.20
-19.41
-16.23
-13.02
-9.89
-6.73
-3.36
0.21
3.76
6.93
9.40
11.02
11.93
12.47
13.07
13.98
15.23
16.48
17.37
17.59
17.17
16.48
15.94
15.87
16.28
16.85
17.17
16.92
16.08
14.87
13.60
12.53
11.69
10.98
10.16
9.05
7.62
5.91
4.11
2.30
0.46
-1.51
-3.70
-6.02
-8.15
-9.64
-10.13
-9.53
-8.10
-6.39
-4.95
-4.11
-3.84
-3.79
-3.60
-3.04
-2.18
-1.30
-0.73
-0.61
-0.85
-1.23
-1.45
-1.32
-0.88
-0.27
0.29
0.65
0.79
0.78
0.76
0.77
0.73
0.51
-0.02
-0.83
-1.71
-2.38
-2.63
-2.49
-2.19
-2.16
-2.69
-3.80
-5.17
-6.15
-6.24
-5.15
-3.11
-0.70
1.36
2.56
2.81
2.42
1.93
1.84
2.40
3.50
4.77
5.84
6.52
6.83
7.04
7.35
7.82
8.31
8.59
8.52
8.15
7.68
7.34
7.21
7.21
6.98
6.27
4.88
2.94
0.76
-1.34
-3.14
-4.66
-6.11
-7.79
-9.88
-12.37
-15.03
-17.52
-19.48
-20.70
-21.13
-20.90
-20.15
-18.96
-17.38
-15.38
-13.06
-10.57
-8.15
-5.99
-4.13
-2.45
-0.77
1.08
3.11
5.20
7.08
8.56
9.53
10.11
10.57
11.16
12.03
13.09
14.10
14.76
14.94
14.70
14.28
13.89
13.62
13.29
12.64
11.45
9.78
7.94
6.28
5.10
4.28
3.45
2.14
0.05
-2.72
-5.70
-8.28
-9.96
-10.54
-10.15
-9.17
-7.95
-6.68
-5.36
-3.80
-1.88
0.43
2.93
5.33
7.30
8.70
9.62
10.31
11.07
12.06
13.23
14.32
15.07
15.39
15.41
15.44
15.76
16.39
17.06
17.37
17.04
16.10
14.88
13.82
13.16
12.90
12.74
12.29
11.32
9.83
8.07
6.38
5.02
4.06
3.35
2.62
1.58
0.07
-1.90
-4.13
-6.26
-7.91
-8.76
-8.68
-7.80
-6.37
-4.66
-2.90
-1.14
0.60
2.28
3.74
4.85
5.57
6.08
6.68
7.62
8.95
10.38
11.42
11.70
11.13
10.03
8.95
8.32
8.30
8.64
8.96
8.97
8.66
8.28
8.11
8.24
8.49
8.47
7.84
6.47
4.63
2.83
1.57
1.15
1.40
1.85
1.93
1.22
-0.32
-2.34
-4.30
-5.72
-6.34
-6.18
-5.52
-4.60
-3.54
-2.27
-0.61
1.48
3.80
5.94
7.41
7.91
7.45
6.36
5.04
3.78
2.63
1.37
-0.22
-2.19
-4.26
-5.92
-6.74
-6.52
-5.52
-4.26
-3.30
-2.93
-3.06
-3.28
-3.19
-2.58
-1.61
-0.69
-0.25
-0.49
-1.34
-2.46
-3.45
-4.11
-4.49
-4.88
-5.60
-6.78
-8.30
-9.72
-10.53
-10.36
-9.16
-7.27
-5.19
-3.45
-2.28
-1.57
-1.02
-0.28
0.74
1.90
2.93
3.71
4.35
5.16
6.42
8.14
9.96
11.33
11.73
10.99
9.38
7.47
5.90
4.99
4.74
4.84
4.88
4.58
3.89
2.98
2.02
1.12
0.27
-0.67
-1.81
-3.12
-4.45
-5.49
-6.07
-6.14
-5.96
-5.89
-6.29
-7.21
-8.32
-9.01
-8.72
-7.14
-4.49
-1.38
1.40
3.32
4.28
4.65
5.06
5.93
7.39
9.14
10.73
11.86
12.55
13.14
13.95
15.21
16.78
18.24
19.16
19.24
18.52
17.28
15.84
14.47
13.16
11.67
9.71
7.09
3.92
0.56
-2.47
-4.77
-6.24
-7.07
-7.80
-8.93
-10.73
-13.16
-15.82
-18.28
-20.16
-21.38
-22.03
-22.27
-22.12
-21.50
-20.31
-18.54
-16.39
-14.26
-12.53
-11.43
-10.80
-10.28
-9.52
-8.32
-6.86
-5.49
-4.56
-4.13
-3.98
-3.69
-2.92
-1.57
0.12
1.72
2.73
2.93
2.37
1.32
0.22
-0.68
-1.30
-1.78
-2.35
-3.09
-3.87
-4.38
-4.38
-3.79
-2.87
-2.11
-1.94
-2.65
-4.03
-5.58
-6.73
-7.10
-6.71
-5.94
-5.29
-5.15
-5.58
-6.32
-6.97
-7.22
-7.04
-6.62
-6.40
-6.60
-7.25
-8.10
-8.75
-8.95
-8.66
-8.12
-7.59
-7.21
-6.85
-6.26
-5.20
-3.62
-1.73
0.03
1.32
1.88
1.76
1.22
0.58
0.14
0.02
0.13
0.28
0.28
0.05
-0.34
-0.75
-1.03
-1.18
-1.25
-1.44
-1.73
-2.05
-2.18
-1.93
-1.35
-0.63
-0.11
-0.00
-0.21
-0.40
-0.19
0.66
2.05
3.68
5.10
6.04
6.41
6.41
6.32
6.33
6.49
6.66
6.64
6.29
5.61
4.76
3.99
3.50
3.37
3.49
3.67
3.59
3.18
2.50
1.77
1.34
1.37
1.79
2.32
2.57
2.28
1.52
0.56
-0.26
-0.73
-0.88
-1.00
-1.25
-1.69
-2.12
-2.15
-1.60
-0.49
0.85
1.98
2.54
2.50
2.12
1.81
1.89
2.46
3.28
4.05
4.32
4.03
3.33
2.62
2.35
2.63
3.28
3.80
3.77
3.11
2.10
1.32
1.25
2.01
3.36
4.68
5.45
5.40
4.72
3.94
3.52
3.73
4.35
4.93
4.96
4.21
2.87
1.38
0.17
-0.56
-0.99
-1.47
-2.30
-3.38
-4.24
-4.32
-3.17
-0.91
1.90
4.45
6.13
6.79
6.77
6.65
6.88
7.52
8.32
8.76
8.54
7.56
6.11
4.66
3.57
2.95
2.61
2.25
1.66
0.93
0.35
0.31
1.00
2.29
3.67
4.55
4.45
3.37
1.67
-0.05
-1.25
-1.80
-1.97
-2.26
-3.07
-4.48
-6.17
-7.68
-8.71
-9.30
-9.79
-10.68
-12.15
-14.08
-15.99
-17.33
-17.76
-17.28
-16.25
-15.14
-14.29
-13.76
-13.33
-12.62
-11.29
-9.25
-6.74
-4.23
-2.32
-1.34
-1.31
-1.89
-2.51
-2.77
-2.58
-2.16
-1.91
-2.07
-2.57
-3.12
-3.33
-3.04
-2.34
-1.65
-1.32
-1.53
-2.10
-2.58
-2.54
-1.68
-0.06
2.06
4.26
6.27
7.91
9.12
9.80
9.77
8.79
6.71
3.59
-0.07
-3.47
-5.78
-6.36
-5.16
-2.66
0.31
3.01
5.11
6.71
8.13
9.55
10.86
11.69
11.57
10.41
8.49
6.40
4.75
3.77
3.27
2.75
1.74
0.05
-2.08
-4.15
-5.69
-6.48
-6.64
-6.58
-6.70
-7.27
-8.25
-9.37
-10.30
-10.76
-10.73
-10.36
-9.93
-9.65
-9.60
-9.61
-9.42
-8.77
-7.57
-5.91
-4.14
-2.62
-1.60
-1.13
-0.93
-0.67
-0.03
1.08
2.49
3.87
4.94
5.56
5.81
5.93
6.12
6.43
6.73
6.74
6.32
5.54
4.67
4.03
3.72
3.59
3.21
2.27
0.71
-1.15
-2.79
-3.81
-4.13
-4.01
-4.01
-4.46
-5.50
-6.90
-8.23
-9.18
-9.64
-9.80
-9.94
-10.29
-10.84
-11.35
-11.47
-10.92
-9.62
-7.81
-5.86
-4.22
-3.10
-2.40
-1.84
-1.02
0.16
1.55
2.74
3.37
3.36
2.98
2.73
3.01
3.88
5.07
6.01
6.34
5.97
5.23
4.65
4.63
5.33
6.50
7.73
8.63
9.02
8.95
8.67
8.42
8.32
8.26
8.06
7.48
6.48
5.23
3.96
2.92
2.05
1.10
-0.25
-2.11
-4.26
-6.11
-6.96
-6.38
-4.33
-1.22
2.22
5.38
7.87
9.66
10.99
12.08
13.07
13.84
14.20
14.00
13.34
12.51
11.93
11.93
12.58
13.60
14.52
14.87
14.44
13.37
12.03
10.80
9.78
8.78
7.37
5.27
2.52
-0.41
-2.88
-4.39
-4.80
-4.45
-3.96
-3.85
-4.45
-5.71
-7.38
-9.20
-11.01
-12.82
-14.63
-16.35
-17.73
-18.47
-18.37
-17.47
-16.04
-14.56
-13.46
-13.00
-13.06
-13.33
-13.41
-13.08
-12.42
-11.72
-11.32
-11.38
-11.75
-12.01
-11.73
-10.71
-9.04
-7.17
-5.62
-4.72
-4.57
-4.94
-5.44
-5.85
-6.10
-6.37
-6.82
-7.47
-8.06
-8.26
-7.77
-6.65
-5.28
-4.27
-4.14
-5.11
-6.91
-8.86
-10.22
-10.43
-9.44
-7.65
-5.70
-4.14
-3.14
-2.48
-1.74
-0.52
1.27
3.43
5.46
7.01
7.95
8.40
8.77
9.37
10.34
11.59
12.81
13.76
14.36
14.78
15.30
16.12
17.24
18.33
18.99
18.87
17.96
16.59
15.22
14.25
13.76
13.54
13.17
12.39
11.13
9.62
8.13
6.83
5.67
4.43
2.88
1.02
-0.87
-2.34
-2.92
-2.51
-1.33
0.08
1.18
1.77
2.05
2.53
3.67
5.63
8.12
10.41
11.87
12.09
11.28
10.07
9.25
9.40
10.57
12.35
14.11
15.34
15.75
15.29
13.96
11.72
8.60
4.83
0.86
-2.70
-5.58
-8.04
-10.82
-14.78
-20.29
-26.91
-33.44
-38.42
-40.69
-39.81
-36.00
-29.91
-22.13
-13.11
-3.00
8.06
19.84
32.00
44.15
56.08
67.66
78.85
89.49
99.25
107.66
114.30
118.99
121.92
123.62
124.89
126.42
128.67
131.35
133.38
133.01
128.29
117.87
101.52
80.17
55.35
28.30
-0.41
-30.52
-61.36
-91.18
-117.53
-138.03
-151.71
-159.37
-163.06
-164.92
-166.12
-166.71
-165.98
-163.31
-158.50
-151.62
-142.72
-131.48
-117.24
-99.39
-78.01
-54.38
-30.79
-10.08
5.71
16.65
25.34
36.29
54.08
81.15
116.54
155.97
193.48
223.56
242.87
250.80
248.66
238.92
223.99
206.06
186.95
167.95
149.81
132.60
116.04
99.86
84.25
70.02
58.41
50.50
46.73
46.56
48.58
50.83
51.63
49.91
45.42
38.73
30.58
21.71
12.47
2.84
-7.31
-18.05
-29.22
-40.44
-51.30
-61.75
-72.45
-84.68
-100.34
-121.25
-148.83
-183.96
-226.72
-276.27
-330.34
-384.74
-433.54
-470.16
-489.44
-489.63
-473.33
-446.61
-416.59
-388.76
-364.91
-343.30
-320.43
-293.24
-261.04
-225.51
-189.72
-156.47
-127.17
-101.57
-78.35
-55.79
-32.39
-7.09
20.62
50.80
82.81
115.36
146.68
175.00
199.15
218.85
234.71
247.75
259.07
269.49
279.66
290.20
301.70
314.49
328.48
342.94
356.83
369.23
379.73
388.62
396.36
402.96
407.34
407.15
399.34
381.22
351.56
311.24
263.11
211.15
159.06
109.48
63.39
20.53
-20.07
-59.63
-99.36
-140.68
-185.12
-233.70
-285.83
-338.47
-386.06
-421.86
-440.03
-437.78
-416.30
-380.19
-335.57
-287.99
-241.18
-196.84
-155.69
-118.31
-85.65
-58.67
-37.67
-21.89
-9.77
0.40
9.73
18.40
25.77
31.07
33.93
34.71
34.49
34.37
35.22
37.13
39.49
41.38
41.96
40.92
38.58
35.65
32.95
30.97
29.76
28.89
27.88
26.40
24.48
22.46
20.64
19.19
17.95
16.71
15.31
13.84
12.52
11.53
10.79
9.97
8.50
6.04
2.55
-1.52
-5.41
-8.46
-10.30
-11.09
-11.36
-11.67
-12.35
-13.40
-14.52
-15.34
-15.69
-15.68
-15.57
-15.75
-16.37
-17.33
-18.35
-19.05
-19.22
-18.85
-18.17
-17.37
-16.54
-15.48
-13.85
-11.38
-8.02
-4.13
-0.42
2.46
4.06
4.44
4.11
3.62
3.40
3.36
3.14
2.24
0.49
-1.89
-4.35
-6.26
-7.25
-7.33
-6.78
-6.02
-5.24
-4.43
-3.47
-2.26
-0.96
0.12
0.63
0.40
-0.39
-1.38
-2.17
-2.61
-2.79
-2.99
-3.50
-4.27
-5.02
-5.23
-4.43
-2.53
0.18
3.10
5.59
7.24
8.11
8.59
9.29
10.70
13.01
15.92
18.81
20.94
21.75
21.10
19.25
16.77
14.17
11.72
9.44
7.16
4.81
2.54
0.67
-0.48
-0.81
-0.53
-0.17
-0.25
-1.09
-2.60
-4.32
-5.75
-6.53
-6.75
-6.76
-7.05
-7.88
-9.21
-10.71
-11.96
-12.67
-12.84
-12.61
-12.21
-11.71
-10.99
-9.86
-8.20
-6.16
-4.10
-2.50
-1.71
-1.75
-2.32
-2.91
-3.11
-2.75
-1.91
-0.87
0.18
1.17
2.15
3.25
4.39
5.38
5.87
5.67
4.82
3.66
2.65
2.15
2.27
2.82
3.36
3.55
3.13
2.22
1.11
0.11
-0.57
-1.07
-1.74
-3.00
-5.01
-7.56
-10.09
-11.88
-12.40
-11.49
-9.48
-7.05
-4.90
-3.53
-3.03
-3.09
-3.32
-3.34
-3.09
-2.74
-2.54
-2.58
-2.73
-2.66
-2.09
-1.01
0.27
1.28
1.56
1.03
0.00
-1.04
-1.62
-1.62
-1.30
-1.14
-1.53
-2.54
-3.84
-4.91
-5.33
-5.03
-4.33
-3.87
-4.10
-5.17
-6.82
-8.49
-9.74
-10.48
-10.96
-11.58
-12.59
-13.85
-14.93
-15.31
-14.71
-13.23
-11.35
-9.61
-8.43
-7.79
-7.29
-6.45
-4.85
-2.51
0.20
2.71
4.50
5.44
5.75
5.95
6.51
7.64
9.24
10.86
12.07
12.61
12.49
12.06
11.64
11.45
11.47
11.49
11.28
10.79
10.15
9.59
9.34
9.39
9.50
9.37
8.73
7.61
6.33
5.24
4.65
4.36
3.91
2.67
0.26
-3.23
-7.15
-10.67
-13.04
-13.93
-13.49
-12.27
-10.83
-9.52
-8.42
-7.31
-6.01
-4.51
-3.02
-1.85
-1.13
-0.70
-0.13
1.05
3.08
5.78
8.57
10.79
11.89
11.85
11.02
9.93
9.10
8.69
8.57
8.47
8.18
7.73
7.32
7.19
7.40
7.77
7.95
7.57
6.53
5.00
3.34
1.97
1.05
0.50
0.02
-0.77
-2.07
-3.82
-5.65
-7.08
-7.63
-7.03
-5.43
-3.14
-0.68
1.63
3.73
5.76
7.95
10.33
12.73
14.77
16.23
17.09
17.66
18.37
19.55
21.27
23.25
25.00
26.05
26.11
25.24
23.79
22.17
20.73
19.49
18.22
16.56
14.23
11.18
7.59
3.72
-0.18
-4.07
-7.98
-12.01
-16.02
-19.72
-22.77
-24.93
-26.34
-27.34
-28.38
-29.61
-30.81
-31.40
-30.72
-28.45
-24.77
-20.37
-16.18
-12.89
-10.71
-9.31
-8.05
-6.48
-4.57
-2.73
-1.59
-1.49
-2.30
-3.45
-4.23
-4.14
-3.16
-1.79
-0.55
0.14
0.31
0.36
0.71
1.64
2.98
4.30
5.08
5.07
4.40
3.50
2.90
2.89
3.40
4.02
4.20
3.64
2.33
0.56
-1.25
-2.90
-4.48
-6.26
-8.51
-11.18
-13.78
-15.60
-15.98
-14.64
-11.83
-8.31
-4.93
-2.36
-0.77
0.18
0.98
2.09
3.53
5.01
6.07
6.42
6.11
5.59
5.40
5.94
7.26
9.05
10.76
11.94
12.43
12.35
12.13
12.06
12.25
12.48
12.43
11.89
10.93
9.90
9.23
9.10
9.41
9.67
9.43
8.41
6.71
4.75
2.97
1.65
0.69
-0.31
-1.80
-3.98
-6.66
-9.28
-11.14
-11.71
-10.91
-9.05
-6.82
-4.76
-3.15
-1.90
-0.70
0.62
2.03
3.23
3.85
3.77
3.21
2.62
2.49
3.04
4.21
5.60
6.81
7.49
7.62
7.44
7.25
7.36
7.76
8.28
8.57
8.35
7.54
6.22
4.63
3.02
1.56
0.30
-0.86
-1.97
-3.04
-4.01
-4.74
-5.31
-5.92
-6.93
-8.63
-10.97
-13.49
-15.44
-16.10
-15.17
-12.91
-10.09
-7.54
-5.85
-5.06
-4.78
-4.51
-3.89
-2.92
-1.82
-0.88
-0.20
0.36
1.08
2.21
3.79
5.61
7.27
8.35
8.67
8.36
7.84
7.52
7.58
7.80
7.70
6.85
5.15
3.01
1.09
-0.01
-0.14
0.38
0.85
0.69
-0.36
-2.04
-3.79
-5.05
-5.46
-5.02
-3.94
-2.49
-0.83
0.99
3.01
5.22
7.49
9.59
11.35
12.61
13.48
14.13
14.82
15.79
17.03
18.41
19.71
20.79
21.70
22.61
23.70
24.92
26.07
26.86
27.00
26.49
25.54
24.48
23.68
23.30
23.35
23.69
24.14
24.48
24.53
24.08
22.86
20.63
17.24
12.69
7.23
1.22
-4.77
-10.19
-14.56
-17.52
-19.05
-19.34
-18.84
-17.99
-17.14
-16.34
-15.40
-14.10
-12.28
-9.99
-7.60
-5.45
-3.84
-2.75
-1.83
-0.69
0.91
2.92
4.97
6.64
7.65
8.04
8.12
8.31
8.91
9.94
11.18
12.21
12.75
12.66
12.04
11.12
10.09
9.07
8.06
7.04
5.98
4.92
3.87
2.76
1.39
-0.47
-3.10
-6.47
-10.32
-14.13
-17.18
-18.98
-19.33
-18.51
-17.08
-15.64
-14.49
-13.63
-12.71
-11.39
-9.51
-7.28
-5.10
-3.41
-2.36
-1.86
-1.64
-1.42
-1.17
-1.14
-1.69
-3.00
-4.91
-6.92
-8.36
-8.77
-8.08
-6.67
-5.26
-4.47
-4.60
-5.54
-6.77
-7.83
-8.39
-8.53
-8.51
-8.64
-9.01
-9.52
-9.93
-10.12
-10.13
-10.19
-10.51
-11.12
-11.75
-11.94
-11.31
-9.71
-7.39
-4.85
-2.64
-1.06
0.02
1.04
2.50
4.69
7.45
10.26
12.40
13.44
13.30
12.40
11.41
10.79
10.70
10.82
10.70
10.00
8.74
7.27
6.04
5.35
5.19
5.20
5.01
4.26
2.99
1.47
0.08
-0.83
-1.23
-1.29
-1.38
-1.76
-2.51
-3.41
-4.15
-4.50
-4.41
-4.01
-3.59
-3.26
-2.99
-2.54
-1.60
-0.09
1.84
3.72
5.06
5.55
5.14
4.16
3.00
2.04
1.44
1.13
0.92
0.62
0.25
-0.03
-0.03
0.39
1.09
1.79
2.16
2.05
1.60
1.18
1.18
1.73
2.69
3.70
4.25
4.14
3.39
2.34
1.39
0.81
0.62
0.56
0.32
-0.30
-1.30
-2.45
-3.45
-4.12
-4.41
-4.47
-4.47
-4.50
-4.38
-3.78
-2.41
-0.16
2.64
5.41
7.51
8.60
8.80
8.64
8.72
9.38
10.47
11.51
11.88
11.36
10.15
8.83
8.04
8.04
8.67
9.36
9.58
9.13
8.19
7.26
6.79
6.99
7.71
8.53
9.04
8.94
8.24
7.19
6.16
5.45
5.14
5.06
4.91
4.39
3.45
2.29
1.28
0.70
0.59
0.73
0.73
0.39
-0.20
-0.67
-0.55
0.31
1.74
3.23
4.26
4.60
4.40
4.10
4.14
4.68
5.58
6.41
6.73
6.27
5.17
3.78
2.59
1.94
1.84
1.97
1.94
1.49
0.71
-0.02
-0.26
0.22
1.23
2.34
2.91
2.60
1.42
-0.21
-1.69
-2.64
-2.99
-3.14
-3.63
-4.83
-6.79
-9.19
-11.52
-13.42
-14.80
-15.91
-17.08
-18.60
-20.39
-22.14
-23.41
-23.84
-23.36
-22.21
-20.73
-19.28
-17.96
-16.61
-14.97
-12.82
-10.22
-7.51
-5.25
-3.82
-3.35
-3.55
-3.84
-3.71
-2.90
-1.56
-0.07
1.25
2.27
3.15
4.17
5.52
7.18
8.85
10.14
10.70
10.44
9.54
8.29
7.03
5.89
4.86
3.80
2.63
1.46
0.55
0.23
0.72
2.04
3.95
6.00
7.85
9.23
10.14
10.74
11.14
11.39
11.35
10.83
9.78
8.37
6.98
6.04
5.82
6.25
6.86
7.10
6.56
5.26
3.69
2.48
2.20
2.85
3.99
4.86
4.83
3.69
1.76
-0.31
-1.92
-2.83
-3.27
-3.89
-5.26
-7.68
-10.94
-14.34
-17.13
-18.74
-19.04
-18.25
-16.69
-14.52
-11.66
-7.95
-3.46
1.40
5.80
8.97
10.47
10.45
9.55
8.49
7.73
7.19
6.48
5.19
3.26
1.12
-0.50
-0.91
0.17
2.45
5.20
7.38
8.21
7.29
4.74
1.17
-2.75
-6.39
-9.42
-11.69
-13.18
-13.77
-13.33
-11.81
-9.41
-6.59
-4.08
-2.49
-2.12
-2.77
-3.80
-4.54
-4.45
-3.52
-2.15
-0.93
-0.34
-0.51
-1.18
-1.86
-2.07
-1.56
-0.30
1.47
3.55
5.75
8.04
10.44
12.84
15.04
16.79
17.97
18.69
19.36
20.49
22.44
25.18
28.28
30.98
32.58
32.63
31.15
28.62
25.66
22.83
20.42
18.44
16.71
15.06
13.38
11.62
9.70
7.49
4.77
1.44
-2.51
-6.84
-11.16
-15.13
-18.49
-21.24
-23.56
-25.73
-27.95
-30.25
-32.48
-34.36
-35.62
-36.13
-35.93
-35.30
-34.54
-33.93
-33.56
-33.26
-32.77
-31.78
-30.23
-28.26
-26.23
-24.49
-23.27
-22.55
-22.14
-21.84
-21.56
-21.40
-21.55
-21.99
-22.42
-22.26
-20.79
-17.63
-12.86
-7.12
-1.26
3.90
7.96
10.90
12.97
14.45
15.50
15.97
15.78
14.80
13.18
11.22
9.21
7.35
5.60
3.76
1.65
-0.66
-2.87
-4.50
-5.15
-4.78
-3.74
-2.64
-2.09
-2.25
-2.85
-3.26
-2.84
-1.38
0.83
3.06
4.61
5.17
4.96
4.52
4.38
4.68
5.10
5.01
3.98
1.94
-0.68
-3.16
-4.87
-5.60
-5.60
-5.48
-5.78
-6.77
-8.28
-9.85
-10.93
-11.20
-10.72
-9.83
-9.09
-8.91
-9.46
-10.55
-11.75
-12.63
-12.88
-12.43
-11.36
-9.75
-7.59
-4.89
-1.71
1.65
4.82
7.40
9.33
11.01
13.12
16.35
20.81
25.95
30.53
33.29
33.46
31.22
27.62
24.07
21.72
20.89
21.04
21.21
20.52
18.74
16.35
14.22
13.16
13.38
14.41
15.31
15.17
13.72
11.41
9.33
8.63
10.12
13.89
19.37
25.71
32.10
38.07
43.50
48.36
52.80
57.25
62.76
71.11
84.30
103.62
128.78
157.64
187.01
213.75
236.06
253.66
267.38
277.98
285.37
288.57
286.15
277.20
261.72
240.72
215.78
188.59
160.56
132.65
105.42
79.06
53.54
28.91
5.33
-16.78
-37.06
-55.39
-72.06
-87.65
-102.74
-117.54
-131.80
-144.96
-156.46
-165.91
-173.20
-178.27
-180.82
-180.32
-176.05
-167.52
-154.80
-138.69
-120.75
-102.80
-86.47
-72.75
-61.78
-53.07
-45.81
-39.38
-33.56
-28.47
-24.52
-21.86
-20.36
-19.53
-18.70
-17.45
-15.63
-13.52
-11.55
-10.04
-9.04
-8.40
-7.91
-7.55
-7.54
-8.28
-10.01
-12.72
-15.98
-19.13
-21.63
-23.21
-24.11
-24.86
-25.98
-27.66
-29.66
-31.39
-32.26
-32.09
-31.14
-30.13
-29.94
-31.08
-33.59
-36.90
-40.10
-42.40
-43.40
-43.26
-42.58
-42.03
-42.07
-42.72
-43.69
-44.66
-45.55
-46.83
-49.34
-54.08
-61.64
-71.86
-83.85
-96.23
-107.78
-117.85
-126.62
-134.88
-143.51
-153.05
-163.38
-173.69
-182.61
-188.38
-189.15
-183.18
-169.53
-148.73
-123.22
-97.30
-76.14
-64.20
-63.58
-73.16
-88.92
-105.44
-117.76
-123.03
-120.94
-113.28
-102.44
-90.26
-77.30
-63.03
-46.75
-28.41
-9.10
9.25
24.68
35.99
43.24
47.59
50.76
54.24
58.91
64.88
71.73
78.98
86.31
93.65
101.03
108.30
114.97
120.22
123.24
123.47
120.86
115.90
109.34
101.92
94.14
86.13
77.87
69.31
60.63
52.21
44.57
38.26
33.65
30.90
29.92
30.46
32.19
34.77
37.94
41.50
45.36
49.44
53.73
58.29
63.33
69.15
76.15
84.52
94.08
104.01
112.90
118.93
120.43
116.46
107.19
93.96
78.80
63.72
50.04
38.12
27.58
17.75
8.07
-1.72
-11.69
-21.86
-32.22
-42.77
-53.29
-63.51
-73.17
-82.30
-91.17
-100.01
-108.83
-117.13
-124.21
-129.35
-132.18
-132.80
-131.58
-129.02
-125.51
-121.31
-116.64
-111.73
-106.87
-102.27
-97.94
-93.68
-89.04
-83.61
-77.06
-69.38
-60.92
-52.19
-43.87
-36.50
-30.39
-25.44
-21.31
-17.48
-13.57
-9.54
-5.75
-2.85
-1.56
-2.20
-4.59
-7.95
-11.16
-13.23
-13.58
-12.27
-9.82
-6.89
-3.93
-1.07
1.84
5.04
8.59
12.25
15.68
18.50
20.58
22.10
23.38
24.72
26.14
27.42
28.21
28.28
27.69
26.78
26.06
25.90
26.40
27.35
28.22
28.49
27.81
26.09
23.60
20.74
17.94
15.49
13.49
11.97
10.89
10.25
9.96
9.80
9.40
8.24
6.02
2.85
-0.59
-3.23
-4.09
-2.69
0.65
4.95
9.04
12.12
14.07
15.34
16.61
18.25
20.12
21.62
22.02
21.04
19.02
16.80
15.41
15.40
16.70
18.56
20.04
20.47
19.78
18.49
17.27
16.59
16.43
16.25
15.51
13.85
11.49
8.97
6.89
5.61
4.97
4.51
3.68
2.15
-0.03
-2.52
-4.86
-6.72
-7.93
-8.45
-8.32
-7.45
-5.78
-3.25
0.05
3.79
7.51
10.72
13.15
14.77
15.80
16.51
17.09
17.57
17.86
17.81
17.45
16.84
16.23
15.86
15.87
16.28
16.89
17.48
17.83
17.84
17.57
17.13
16.65
16.22
15.80
15.34
14.69
13.77
12.58
11.16
9.57
7.77
5.71
3.24
0.39
-2.55
-4.97
-6.11
-5.39
-2.64
1.76
6.92
11.88
15.92
18.82
20.82
22.36
23.85
25.36
26.73
27.77
28.43
28.99
29.92
31.68
34.44
37.94
41.67
45.02
47.69
49.77
51.68
53.95
56.84
60.28
63.90
67.34
70.47
73.47
76.68
80.32
84.31
88.27
91.55
93.59
94.03
92.87
90.38
86.94
82.93
78.55
73.90
69.00
63.96
58.97
54.30
50.21
46.79
43.97
41.58
39.40
37.29
35.17
32.85
30.08
26.39
21.31
14.52
5.96
-4.08
-15.03
-26.17
-36.83
-46.51
-54.97
-62.34
-68.85
-74.85
-80.53
-85.87
-90.79
-95.13
-98.88
-102.14
-104.99
-107.37
-109.03
-109.66
-109.08
-107.43
-105.11
-102.56
-100.11
-97.65
-94.77
-90.99
-86.00
-80.00
-73.62
-67.70
-62.95
-59.57
-57.23
-55.29
-53.17
-50.64
-47.87
-45.38
-43.57
-42.57
-42.17
-41.86
-41.23
-40.12
-38.77
-37.65
-37.19
-37.54
-38.48
-39.53
-40.21
-40.28
-39.80
-39.03
-38.32
-37.71
-37.03
-35.93
-34.14
-31.71
-29.09
-26.95
-25.93
-26.23
-27.54
-29.11
-30.02
-29.50
-27.24
-23.49
-18.82
-13.97
-9.47
-5.50
-2.05
1.08
3.91
6.34
8.16
9.29
9.88
10.32
11.03
12.26
13.95
15.76
17.15
17.81
17.70
17.12
16.58
16.43
16.78
17.40
17.90
17.99
17.61
17.01
16.54
16.46
16.77
17.11
17.09
16.37
14.90
12.95
10.89
9.02
7.39
5.91
4.56
3.54
3.32
4.38
6.98
10.90
15.48
19.89
23.45
25.98
27.71
29.12
30.60
32.14
33.43
34.04
33.74
32.75
31.60
30.92
31.03
31.81
32.75
33.14
32.56
30.94
28.60
26.01
23.49
21.17
18.89
16.43
13.66
10.63
7.50
4.54
1.89
-0.40
-2.51
-4.68
-7.17
-9.98
-12.80
-15.03
-15.96
-15.17
-12.72
-9.17
-5.30
-1.80
1.05
3.41
5.62
7.88
10.13
11.94
12.94
13.00
12.42
11.80
11.72
12.46
13.83
15.35
16.46
16.92
16.81
16.48
16.29
16.40
16.63
16.70
16.26
15.24
13.82
12.38
11.27
10.57
10.04
9.15
7.51
5.06
2.26
-0.09
-1.17
-0.55
1.68
4.85
8.21
11.17
13.57
15.74
18.09
20.90
24.03
27.06
29.48
30.96
31.52
31.45
31.13
30.76
30.21
29.21
27.42
24.83
21.71
18.56
15.88
13.78
12.08
10.27
7.92
4.89
1.41
-2.01
-4.82
-6.62
-7.35
-7.30
-6.94
-6.74
-7.03
-7.81
-8.94
-10.18
-11.36
-12.40
-13.18
-13.53
-13.13
-11.72
-9.28
-6.12
-2.88
-0.23
1.31
1.71
1.36
0.86
0.82
1.44
2.60
3.95
5.18
6.21
7.26
8.64
10.53
12.80
15.10
16.85
17.74
17.72
17.13
16.49
16.09
16.02
15.94
15.45
14.25
12.39
10.21
8.23
6.84
6.14
5.86
5.54
4.63
2.84
0.23
-2.86
-5.89
-8.43
-10.15
-10.96
-10.83
-9.82
-7.94
-5.31
-2.20
0.93
3.61
5.44
6.39
6.71
6.84
7.27
8.17
9.45
10.78
11.83
12.43
12.64
12.73
12.95
13.41
14.07
14.64
14.89
14.60
13.75
12.49
11.00
9.44
7.82
6.01
3.88
1.38
-1.37
-4.14
-6.67
-8.82
-10.61
-12.17
-13.79
-15.61
-17.73
-20.09
-22.54
-24.95
-27.13
-28.91
-30.06
-30.36
-29.59
-27.69
-24.73
-20.96
-16.69
-12.34
-8.28
-4.85
-2.21
-0.34
0.96
2.03
3.11
4.27
5.38
6.25
6.79
7.15
7.62
8.49
9.82
11.45
12.91
13.87
14.15
13.82
13.16
12.32
11.32
10.00
8.23
6.04
3.74
1.72
0.31
-0.46
-0.91
-1.60
-3.00
-5.31
-8.26
-11.18
-13.33
-14.11
-13.45
-11.72
-9.63
-7.80
-6.52
-5.67
-4.87
-3.78
-2.36
-0.83
0.38
1.05
1.23
1.27
1.63
2.54
3.95
5.47
6.70
7.43
7.81
8.23
9.13
10.66
12.66
14.56
15.73
15.75
14.62
12.78
10.82
9.25
8.18
7.32
6.18
4.37
1.90
-0.84
-3.30
-4.96
-5.64
-5.36
-4.47
-3.17
-1.67
-0.04
1.71
3.42
4.87
5.82
6.18
6.06
5.80
5.74
6.13
6.99
8.12
9.07
9.54
9.28
8.41
7.29
6.28
5.69
5.52
5.53
5.38
4.83
3.90
2.85
2.03
1.66
1.71
1.92
1.90
1.46
0.61
-0.35
-1.03
-1.22
-1.03
-0.90
-1.30
-2.44
-4.04
-5.40
-5.66
-4.30
-1.31
2.63
6.66
9.96
12.28
13.85
15.20
16.88
19.07
21.65
24.27
26.63
28.64
30.45
32.22
34.00
35.53
36.33
35.77
33.44
29.24
23.45
16.65
9.37
1.96
-5.51
-13.15
-21.02
-29.01
-36.92
-44.59
-52.06
-59.53
-67.08
-74.34
-80.35
-83.70
-83.11
-78.01
-68.86
-57.09
-44.55
-32.86
-22.92
-14.84
-8.15
-2.24
3.33
8.59
13.29
16.99
19.47
20.95
22.06
23.70
26.59
31.03
36.62
42.57
47.91
51.89
54.11
54.47
53.06
49.96
45.31
39.40
32.84
26.53
21.47
18.35
17.35
18.00
19.53
21.13
22.39
23.38
24.33
25.34
26.05
25.78
23.92
20.33
15.57
10.69
6.74
4.21
2.96
2.35
1.68
0.53
-1.18
-3.31
-5.82
-8.90
-12.91
-18.13
-24.60
-31.97
-39.65
-46.88
-52.81
-56.44
-56.64
-52.25
-42.54
-27.64
-8.92
11.24
29.93
44.57
53.53
56.39
53.74
46.69
36.47
24.16
10.73
-2.96
-16.23
-28.78
-40.86
-53.13
-66.38
-80.97
-96.42
-111.21
-123.15
-130.01
-130.46
-124.74
-114.82
-103.89
-95.36
-91.64
-93.45
-99.63
-107.67
-114.62
-117.91
-116.03
-108.61
-96.31
-80.43
-62.66
-44.77
-28.39
-14.72
-4.38
2.83
7.85
12.10
17.01
23.56
31.85
41.08
49.88
56.85
61.09
62.42
61.30
58.47
54.58
50.01
44.86
39.12
32.86
26.24
19.51
12.95
6.92
1.85
-1.75
-3.43
-3.01
-0.68
2.95
7.01
10.69
13.44
14.98
15.33
14.73
13.55
12.31
11.60
11.94
13.59
16.54
20.49
25.05
29.95
35.10
40.51
46.17
51.97
57.71
63.13
67.99
72.16
75.45
77.76
79.04
79.47
79.50
79.82
81.10
83.74
87.69
92.45
97.37
101.90
105.82
109.27
112.62
116.10
119.69
122.96
125.17
125.65
124.07
120.71
116.61
113.23
112.12
114.21
119.36
126.25
132.65
136.17
134.98
128.24
116.22
100.02
81.08
60.81
40.22
19.71
-0.97
-22.53
-45.67
-70.60
-96.66
-122.38
-146.02
-166.15
-182.16
-194.13
-202.36
-206.64
-205.83
-197.99
-181.21
-154.71
-119.69
-79.40
-38.35
-0.83
30.44
54.93
73.85
89.10
101.83
111.80
117.33
116.00
105.71
85.77
57.62
24.92
-7.12
-33.09
-49.07
-53.84
-49.06
-38.28
-25.26
-12.55
-1.05
9.40
18.94
27.07
32.86
35.79
36.45
36.53
38.13
42.59
49.88
58.52
66.41
71.86
74.43
75.09
75.55
77.37
80.81
84.45
85.35
79.95
65.17
39.37
3.00
-41.25
-88.87
-134.21
-171.80
-197.49
-209.46
-208.60
-197.98
-181.78
-164.03
-147.61
-133.87
-122.85
-113.91
-106.29
-99.46
-93.19
-87.34
-81.87
-76.66
-71.68
-66.95
-62.57
-58.78
-55.79
-53.73
-52.46
-51.60
-50.55
-48.75
-45.95
-42.31
-38.40
-34.98
-32.63
-31.63
-31.72
-32.32
-32.79
-32.59
-31.63
-30.10
-28.35
-26.71
-25.17
-23.53
-21.43
-18.61
-15.14
-11.36
-7.93
-5.36
-3.87
-3.32
-3.16
-2.92
-2.28
-1.33
-0.42
0.09
0.07
-0.29
-0.62
-0.55
-0.00
0.74
1.27
1.18
0.42
-0.67
-1.60
-1.91
-1.56
-0.88
-0.43
-0.65
-1.59
-2.86
-3.95
-4.45
-4.31
-3.77
-3.25
-3.02
-3.16
-3.64
-4.44
-5.81
-8.08
-11.53
-16.09
-21.19
-25.85
-29.00
-29.91
-28.46
-25.24
-21.41
-18.14
-16.32
-16.15
-17.10
-18.20
-18.44
-17.30
-14.86
-11.66
-8.44
-5.65
-3.35
-1.28
0.86
3.15
5.39
7.15
8.20
8.61
8.83
9.51
11.00
13.27
15.80
17.89
18.99
18.93
17.94
16.48
14.98
13.67
12.47
11.25
9.76
7.98
6.06
4.21
2.67
1.43
0.32
-1.01
-2.85
-5.17
-7.61
-9.52
-10.27
-9.57
-7.55
-4.89
-2.31
-0.37
0.81
1.58
2.39
3.53
4.91
6.15
6.81
6.81
6.37
6.03
6.21
7.00
8.00
8.68
8.54
7.50
5.92
4.30
3.10
2.35
1.73
0.83
-0.61
-2.42
-4.14
-5.21
-5.30
-4.49
-3.18
-1.97
-1.23
-1.08
-1.30
-1.47
-1.37
-0.98
-0.46
0.01
0.45
1.13
2.40
4.52
7.42
10.71
13.71
15.84
16.77
16.66
16.01
15.41
15.32
15.69
16.13
16.14
15.35
13.84
12.01
10.45
9.49
9.12
9.00
8.58
7.58
5.96
4.00
2.18
0.79
-0.11
-0.78
-1.58
-2.84
-4.57
-6.59
-8.53
-10.12
-11.27
-12.11
-12.78
-13.31
-13.41
-12.62
-10.60
-7.27
-3.05
1.36
5.30
8.47
11.05
13.51
16.33
19.59
22.90
25.60
27.00
26.91
25.61
23.79
22.25
21.32
20.87
20.29
18.93
16.42
12.97
9.18
5.73
2.95
0.58
-2.10
-5.91
-11.35
-18.26
-25.96
-33.53
-40.15
-45.46
-49.44
-52.28
-54.12
-54.93
-54.59
-53.06
-50.57
-47.61
-44.69
-42.29
-40.50
-39.12
-37.79
-36.08
-33.80
-30.94
-27.76
-24.53
-21.48
-18.70
-16.15
-13.71
-11.23
-8.63
-5.96
-3.33
-1.00
0.80
1.85
1.95
1.03
-0.96
-3.94
-7.70
-11.88
-15.85
-18.98
-20.65
-20.49
-18.52
-15.08
-10.89
-6.59
-2.73
0.49
3.19
5.53
7.63
9.43
10.72
11.42
11.66
11.75
12.10
12.93
14.15
15.36
16.09
16.05
15.27
14.09
12.87
11.85
10.89
9.63
7.74
5.09
1.97
-1.08
-3.54
-5.19
-6.18
-6.96
-8.05
-9.61
-11.50
-13.27
-14.32
-14.33
-13.23
-11.33
-9.06
-6.81
-4.71
-2.68
-0.57
1.75
4.20
6.46
8.21
9.17
9.42
9.33
9.31
9.77
10.70
11.77
12.51
12.53
11.75
10.42
8.98
7.82
7.12
6.86
6.77
6.67
6.46
6.17
6.00
6.05
6.30
6.57
6.58
6.17
5.32
4.24
3.17
2.32
1.70
1.05
0.12
-1.26
-2.89
-4.23
-4.69
-3.94
-2.15
0.07
1.96
3.06
3.39
3.41
3.70
4.57
5.88
7.17
7.86
7.74
7.01
6.16
5.70
5.79
6.20
6.47
6.23
5.44
4.48
3.89
4.05
4.99
6.28
7.22
7.34
6.48
4.93
3.32
2.17
1.76
1.89
2.08
1.83
0.83
-0.89
-3.06
-5.26
-7.10
-8.28
-8.66
-8.33
-7.45
-6.27
-5.02
-3.81
-2.74
-1.84
-1.19
-0.80
-0.59
-0.33
0.27
1.46
3.29
5.50
7.55
8.99
9.56
9.39
8.94
8.65
8.76
9.14
9.41
9.18
8.28
6.91
5.48
4.47
4.14
4.44
5.13
5.81
6.19
6.11
5.57
4.65
3.31
1.57
-0.54
-2.78
-4.64
-5.50
-4.92
-2.83
0.35
3.89
6.93
9.00
10.02
10.37
10.64
11.25
12.30
13.55
14.58
15.02
14.80
14.14
13.43
13.08
13.23
13.76
14.38
14.68
14.52
13.94
13.18
12.55
12.05
11.50
10.54
8.87
6.54
3.94
1.66
0.16
-0.48
-0.57
-0.86
-1.94
-4.19
-7.46
-11.13
-14.49
-16.92
-18.14
-18.19
-17.30
-15.66
-13.41
-10.65
-7.49
-4.21
-1.14
1.43
3.32
4.68
5.79
6.97
8.43
10.03
11.38
12.04
11.69
10.39
8.60
6.95
6.04
6.22
7.53
9.64
12.25
14.98
17.58
19.86
21.52
22.22
21.59
19.48
16.00
11.62
7.02
2.86
-0.43
-2.77
-4.36
-5.51
-6.50
-7.25
-7.49
-6.87
-5.14
-2.56
0.29
2.62
3.86
3.98
3.50
3.16
3.48
4.43
5.44
5.66
4.70
2.75
0.68
-0.33
0.45
3.10
6.79
10.27
12.38
12.62
11.29
9.36
8.06
8.33
10.46
14.16
18.53
22.70
25.85
27.50
27.63
26.48
24.68
23.17
23.05
25.17
29.75
35.94
41.99
45.73
45.44
40.51
31.75
20.79
9.33
-1.65
-12.32
-23.51
-36.06
-49.96
-63.98
-75.91
-83.22
-83.92
-77.17
-63.46
-44.53
-22.71
-0.33
20.92
40.04
56.51
69.81
78.95
82.60
79.72
70.48
56.68
41.54
28.55
20.17
16.90
17.33
18.96
19.63
18.39
15.88
13.84
14.22
18.52
27.51
41.14
58.77
79.19
100.61
120.72
136.96
147.06
149.57
144.35
132.52
116.23
98.04
80.25
64.57
51.80
42.04
34.86
29.59
25.31
20.95
15.14
6.54
-5.80
-21.79
-39.99
-57.42
-70.47
-76.05
-72.92
-62.52
-48.77
-36.90
-31.54
-35.21
-47.63
-66.29
-87.86
-109.56
-129.85
-148.03
-163.24
-173.77
-177.20
-171.58
-156.97
-136.22
-114.40
-96.93
-87.39
-85.98
-89.66
-93.63
-93.55
-87.15
-74.60
-57.76
-39.14
-20.84
-4.59
8.03
15.79
18.55
18.46
20.06
28.78
47.99
76.25
106.56
128.64
133.41
117.28
84.04
43.23
5.97
-19.38
-29.66
-26.66
-14.88
0.84
16.71
30.09
38.94
41.53
36.53
23.65
3.99
-19.83
-44.02
-64.69
-78.55
-83.95
-81.18
-72.30
-60.50
-48.93
-39.76
-33.46
-29.11
-25.01
-19.76
-12.97
-5.37
1.64
6.74
9.39
9.87
9.10
8.08
7.36
6.96
6.38
5.14
3.04
0.30
-2.50
-4.83
-6.36
-7.03
-6.92
-6.06
-4.39
-1.67
2.21
7.19
12.88
18.53
23.22
25.94
25.96
22.99
17.37
9.94
1.86
-5.71
-11.92
-16.40
-19.05
-20.10
-19.77
-18.32
-16.03
-13.16
-10.08
-7.09
-4.37
-1.91
0.45
2.98
5.81
8.95
12.17
15.13
17.39
18.67
18.86
18.05
16.60
14.79
12.94
11.15
9.47
7.91
6.54
5.46
4.72
4.30
4.05
3.63
2.74
1.16
-1.11
-3.78
-6.46
-8.65
-10.05
-10.59
-10.45
-9.99
-9.50
-9.12
-8.84
-8.48
-7.91
-7.10
-6.20
-5.36
-4.67
-4.03
-3.21
-2.00
-0.32
1.69
3.78
5.65
7.15
8.26
9.07
9.68
10.10
10.24
9.96
9.16
7.91
6.47
5.17
4.31
3.95
3.90
3.83
3.46
2.78
2.04
1.69
2.05
3.13
4.71
6.25
7.36
7.80
7.66
7.16
6.50
5.71
4.73
3.54
2.33
1.50
1.52
2.67
4.86
7.55
9.86
11.05
10.73
9.07
6.68
4.27
2.34
0.86
-0.57
-2.46
-5.05
-8.09
-10.94
-12.91
-13.61
-13.15
-12.04
-10.97
-10.30
-9.97
-9.56
-8.46
-6.41
-3.51
-0.31
2.51
4.49
5.59
6.02
6.10
5.94
5.34
3.89
1.36
-2.18
-6.18
-9.84
-12.53
-13.87
-13.99
-13.28
-12.17
-10.93
-9.54
-7.87
-5.77
-3.28
-0.58
2.03
4.23
5.99
7.39
8.69
10.11
11.63
13.01
13.87
13.98
13.42
12.53
11.78
11.45
11.51
11.61
11.29
10.35
8.82
7.14
5.82
5.21
5.38
6.02
6.64
6.79
6.27
5.21
3.95
2.89
2.21
1.80
1.37
0.49
-0.97
-2.82
-4.65
-5.83
-6.02
-5.17
-3.57
-1.72
-0.01
1.33
2.31
3.02
3.50
3.70
3.42
2.57
1.12
-0.65
-2.28
-3.36
-3.58
-3.04
-2.07
-1.13
-0.56
-0.42
-0.51
-0.48
-0.10
0.66
1.61
2.37
2.75
2.67
2.29
1.93
1.70
1.57
1.33
0.78
-0.08
-0.96
-1.53
-1.54
-1.08
-0.52
-0.41
-1.07
-2.47
-4.16
-5.47
-5.93
-5.43
-4.30
-3.06
-2.13
-1.57
-1.15
-0.47
0.77
2.56
4.59
6.36
7.25
6.97
5.46
3.03
0.28
-2.25
-4.08
-5.00
-4.97
-4.04
-2.26
0.30
3.51
6.99
10.14
12.26
12.88
11.89
9.70
7.11
4.82
3.28
2.42
1.85
1.13
0.03
-1.39
-2.86
-4.16
-5.25
-6.31
-7.49
-8.87
-10.15
-10.93
-10.80
-9.58
-7.51
-5.10
-2.97
-1.54
-0.79
-0.32
0.39
1.73
3.68
5.89
7.73
8.80
9.03
8.77
8.64
9.12
10.36
12.09
13.74
14.79
14.97
14.29
13.05
11.60
10.20
8.89
7.56
5.97
4.07
1.92
-0.28
-2.28
-4.07
-5.75
-7.52
-9.46
-11.31
-12.50
-12.45
-10.85
-7.84
-3.97
-0.09
3.22
5.68
7.42
8.80
