1574670542.00
64.000000
-0.00
-0.00
-0.00
-0.00
-0.00
-0.00
-0.00
-0.00
-0.00
-0.00
0.00
0.01
0.01
-0.00
-0.03
-0.05
-0.05
0.00
0.13
0.36
0.66
1.01
1.37
1.72
2.06
2.40
2.79
3.24
3.80
4.42
5.06
5.66
6.20
6.68
7.15
7.68
8.31
9.14
10.09
11.04
11.88
12.56
13.14
13.76
14.65
15.96
17.91
20.32
22.90
25.38
27.58
29.57
31.68
34.32
37.81
42.54
48.15
54.10
59.83
64.97
69.58
74.14
79.34
85.71
93.76
103.00
112.62
121.73
129.77
136.75
143.30
150.75
157.77
166.64
177.95
191.79
206.97
220.57
228.25
225.36
208.53
176.87
132.76
80.05
23.07
-34.94
-92.44
-149.16
-205.23
-260.37
-313.74
-363.87
-409.83
-450.91
-486.50
-515.74
-537.23
-549.22
-549.96
-538.37
-514.21
-478.67
-433.88
-382.45
-327.02
-269.84
-212.63
-156.66
-102.95
-52.37
-5.90
35.58
71.43
101.35
125.50
144.38
158.69
169.15
176.37
180.75
182.57
182.07
179.51
175.23
169.65
163.18
156.15
148.81
141.30
133.69
126.02
118.33
110.69
103.16
95.80
88.68
81.83
75.25
68.95
62.95
57.25
51.86
46.78
42.03
37.59
33.45
29.61
26.07
22.81
19.83
17.11
14.67
12.48
10.54
8.83
7.35
6.07
4.97
4.05
3.27
2.62
2.09
1.65
1.30
1.01
0.79
0.61
0.47
0.37
0.28
0.22
0.18
0.15
0.13
0.12
0.13
0.13
0.15
0.17
0.20
0.23
0.27
0.31
0.35
0.40
0.44
0.49
0.53
0.58
0.64
0.69
0.75
0.82
0.89
0.96
1.05
1.14
1.25
1.37
1.50
1.64
1.81
1.99
2.20
2.42
2.67
2.95
3.25
3.59
3.95
4.35
4.79
5.26
5.77
6.32
6.90
7.53
8.20
8.92
9.68
10.49
11.34
12.23
13.17
14.17
15.22
16.35
17.53
18.77
20.04
21.31
22.50
23.54
24.32
24.71
24.60
23.88
22.48
20.36
17.53
14.08
10.11
5.80
1.36
-2.99
-7.05
-10.63
-13.62
-15.96
-17.65
-18.70
-19.16
-19.11
-18.63
-17.80
-16.71
-15.46
-14.14
-12.81
-11.47
-10.10
-8.68
-7.18
-5.57
-3.85
-2.10
-0.38
1.20
2.68
4.11
5.51
6.98
8.57
10.32
12.10
13.77
15.20
16.41
17.63
18.93
20.50
22.52
24.92
27.42
29.62
31.13
31.90
32.27
32.41
32.73
33.60
35.01
36.51
37.43
37.10
35.34
32.55
28.87
24.84
20.78
16.56
11.37
3.81
-8.06
-26.84
-50.40
-78.19
-108.78
-139.47
-166.46
-185.59
-193.78
-190.07
-175.99
-154.89
-131.42
-109.20
-90.12
-74.50
-61.75
-51.18
-42.41
-35.21
-29.21
-24.25
-19.58
-14.45
-8.41
-1.56
5.45
11.72
16.51
19.60
21.05
21.54
21.99
23.11
25.16
27.81
30.34
32.11
32.69
32.18
31.06
29.99
29.47
29.51
29.75
29.60
28.68
26.98
24.78
22.61
20.92
19.85
19.25
18.67
17.74
16.21
14.20
12.13
10.39
9.28
8.67
8.10
6.97
4.85
1.71
-2.03
-5.66
-8.50
-10.16
-10.54
-9.97
-8.69
-6.89
-4.61
-1.77
1.49
4.80
7.57
9.27
9.80
9.52
9.14
9.37
10.58
12.58
14.68
16.24
16.82
16.51
15.86
15.43
15.62
16.27
16.89
16.87
15.90
14.13
12.10
10.50
9.77
9.90
10.49
10.88
10.66
9.75
8.49
7.36
6.64
6.18
5.48
4.05
1.72
-1.17
-3.90
-5.83
-6.64
-6.55
-6.24
-6.26
-6.99
-8.31
-9.84
-11.23
-12.29
-13.19
-14.16
-15.34
-16.51
-17.10
-16.53
-14.46
-11.04
-6.95
-3.02
-0.08
1.62
2.32
2.62
3.19
4.33
5.87
7.26
7.95
7.75
6.98
6.36
6.52
7.74
9.70
11.59
12.72
12.74
11.94
11.03
10.61
10.86
11.41
11.59
10.87
9.21
7.14
5.39
4.57
4.83
5.77
6.75
7.07
6.50
5.20
3.67
2.47
1.79
1.43
0.88
-0.31
-2.21
-4.44
-6.32
-7.43
-7.72
-7.70
-8.18
-9.63
-12.05
-14.73
-16.62
-16.88
-15.24
-12.17
-8.65
-5.64
-3.62
-2.50
-1.73
-0.70
0.87
2.78
4.61
5.79
6.19
5.99
5.69
5.78
6.42
7.39
8.19
8.36
7.79
6.83
6.10
6.09
6.95
8.36
9.54
9.90
9.09
7.34
5.31
3.59
2.51
1.90
1.24
-0.00
-1.97
-4.36
-6.58
-8.04
-8.56
-8.50
-8.53
-9.42
-11.42
-14.22
-16.99
-18.75
-18.92
-17.52
-15.17
-12.64
-10.47
-8.72
-7.05
-5.08
-2.65
0.04
2.39
3.96
4.57
4.59
4.71
5.52
7.18
9.27
10.97
11.53
10.71
8.95
7.12
6.10
6.31
7.47
8.88
9.71
9.63
8.77
7.61
6.69
6.11
5.61
4.66
2.93
0.49
-2.16
-4.33
-5.54
-5.76
-5.47
-5.44
-6.26
-8.14
-10.73
-13.37
-15.45
-16.73
-17.38
-17.81
-18.28
-18.70
-18.60
-17.45
-14.97
-11.37
-7.32
-3.57
-0.78
0.98
1.99
2.79
3.82
5.13
6.48
7.45
7.80
7.65
7.45
7.74
8.77
10.39
12.08
13.11
13.09
12.11
10.72
9.67
9.45
10.05
10.92
11.30
10.65
8.96
6.76
4.76
3.58
3.32
3.56
3.68
3.07
1.60
-0.41
-2.39
-3.78
-4.52
-4.95
-5.69
-7.25
-9.68
-12.60
-15.30
-17.17
-17.93
-17.61
-16.59
-15.09
-13.20
-10.81
-7.84
-4.41
-0.96
1.90
3.65
4.14
3.64
2.75
2.06
1.98
2.54
3.42
4.24
4.64
4.59
4.32
4.24
4.78
6.02
7.64
9.03
9.51
8.78
7.03
4.94
3.24
2.41
2.41
2.65
2.63
2.01
1.03
0.19
-0.04
0.37
0.94
0.95
-0.16
-2.44
-5.43
-8.44
-10.87
-12.47
-13.48
-14.22
-14.93
-15.47
-15.34
-14.05
-11.33
-7.55
-3.57
-0.35
1.48
2.06
2.09
2.59
4.13
6.67
9.57
11.86
13.07
13.23
13.01
13.20
14.24
15.93
17.52
18.17
17.36
15.27
12.61
10.19
8.63
7.96
7.65
7.08
5.70
3.53
1.01
-1.17
-2.48
-2.91
-2.97
-3.41
-4.77
-6.99
-9.53
-11.57
-12.60
-12.70
-12.43
-12.59
-13.47
-14.74
-15.52
-14.82
-12.24
-8.15
-3.61
0.21
2.61
3.65
4.08
4.76
6.29
8.69
11.38
13.73
15.21
15.83
16.00
16.24
16.96
18.07
19.10
19.47
18.83
17.32
15.50
14.12
13.65
14.06
14.89
15.29
14.76
13.16
10.89
8.65
6.99
6.06
5.56
5.01
4.03
2.65
1.23
0.23
-0.06
0.30
0.80
0.96
0.38
-0.89
-2.46
-3.85
-4.76
-5.31
-6.02
-7.46
-9.90
-12.99
-15.90
-17.53
-17.16
-14.75
-10.94
-6.91
-3.61
-1.55
-0.56
-0.01
0.70
1.79
3.06
4.07
4.53
4.55
4.60
5.22
6.72
8.98
11.34
13.13
13.81
13.35
12.24
11.17
10.70
10.95
11.55
11.93
11.64
10.63
9.23
8.01
7.38
7.42
7.87
8.16
7.95
7.08
5.79
4.49
3.48
2.81
2.20
1.33
0.04
-1.48
-2.77
-3.41
-3.26
-2.61
-2.19
-2.65
-4.37
-7.10
-10.11
-12.48
-13.49
-12.98
-11.37
-9.37
-7.65
-6.44
-5.57
-4.56
-3.11
-1.24
0.71
2.17
2.90
2.99
2.88
3.13
3.95
5.18
6.32
6.90
6.74
6.09
5.47
5.32
5.77
6.62
7.35
7.59
7.11
6.08
4.91
4.01
3.66
3.84
4.25
4.50
4.33
3.70
2.80
1.96
1.39
1.09
0.86
0.38
-0.51
-1.73
-2.97
-3.84
-4.18
-4.16
-4.22
-4.79
-6.01
-7.58
-8.95
-9.58
-9.29
-8.32
-7.37
-6.95
-7.30
-8.11
-8.70
-8.49
-7.25
-5.37
-3.62
-2.70
-2.89
-3.84
-4.88
-5.24
-4.61
-3.15
-1.42
-0.10
0.49
0.36
-0.12
-0.49
-0.56
-0.47
-0.56
-1.10
-2.00
-2.78
-2.72
-1.36
1.23
4.43
7.14
8.57
8.39
7.04
5.45
4.48
4.57
5.43
6.26
6.29
5.10
2.89
0.29
-1.89
-3.14
-3.34
-2.70
-1.70
-0.70
0.03
0.31
0.07
-0.85
-2.56
-5.02
-7.90
-10.54
-12.22
-12.35
-10.90
-8.36
-5.57
-3.50
-2.66
-3.11
-4.35
-5.64
-6.32
-6.09
-5.04
-3.62
-2.33
-1.49
-1.13
-1.07
-0.94
-0.52
0.21
1.10
1.83
2.25
2.35
2.29
2.36
2.63
2.98
3.09
2.73
1.85
0.71
-0.21
-0.56
-0.18
0.77
1.78
2.44
2.47
1.95
1.20
0.58
0.25
0.08
-0.30
-1.21
-2.75
-4.64
-6.41
-7.68
-8.35
-8.71
-9.21
-10.20
-11.57
-12.82
-13.33
-12.67
-10.88
-8.43
-6.03
-4.15
-2.98
-2.34
-1.89
-1.41
-0.76
0.01
0.75
1.35
1.73
1.94
2.05
2.13
2.22
2.30
2.27
2.11
1.83
1.55
1.39
1.46
1.78
2.22
2.59
2.68
2.33
1.56
0.51
-0.54
-1.29
-1.55
-1.26
-0.55
0.31
0.99
1.28
1.11
0.59
-0.09
-0.84
-1.60
-2.45
-3.45
-4.59
-5.79
-6.99
-8.24
-9.68
-11.41
-13.32
-15.01
-16.00
-15.89
-14.66
-12.70
-10.60
-8.91
-7.80
-7.15
-6.57
-5.72
-4.52
-3.21
-2.19
-1.74
-1.77
-1.90
-1.54
-0.37
1.56
3.80
5.59
6.51
6.44
5.77
5.14
5.04
5.57
6.33
6.61
5.87
4.00
1.50
-0.86
-2.28
-2.49
-1.78
-0.81
-0.36
-0.69
-1.64
-2.68
-3.28
-3.37
-3.33
-3.82
-5.26
-7.61
-10.33
-12.70
-14.29
-15.12
-15.63
-16.51
-17.96
-19.78
-21.21
-21.29
-19.40
-15.49
-10.23
-4.69
0.05
3.40
5.33
6.21
6.62
6.90
7.06
6.91
6.14
4.79
3.15
1.73
1.03
1.18
1.96
2.85
3.42
3.66
3.96
5.02
7.28
10.72
14.73
18.19
20.32
20.76
19.89
18.47
17.16
16.16
15.18
13.72
11.51
8.74
5.94
3.60
1.93
0.66
-0.73
-2.61
-5.15
-7.92
-10.36
-11.99
-12.67
-12.81
-13.16
-14.47
-17.01
-20.40
-23.66
-25.57
-25.38
-23.03
-19.20
-15.17
-11.90
-9.95
-9.10
-8.61
-7.81
-6.34
-4.45
-2.71
-1.57
-1.09
-0.79
0.02
1.92
4.98
8.59
11.98
14.31
15.47
15.82
16.08
16.85
18.15
19.39
19.79
18.84
16.70
14.18
12.31
11.78
12.58
14.06
15.09
14.95
13.40
10.89
8.32
6.37
5.31
4.80
4.21
3.04
1.25
-0.77
-2.48
-3.42
-3.61
-3.50
-3.65
-4.61
-6.41
-8.75
-11.15
-13.24
-14.94
-16.48
-18.08
-19.67
-20.76
-20.66
-18.75
-14.97
-9.94
-4.72
-0.55
1.91
2.70
2.51
2.37
3.00
4.55
6.54
8.18
8.95
8.78
8.17
7.76
8.07
9.06
10.22
10.98
10.91
10.21
9.50
9.52
10.67
12.66
14.55
15.25
14.07
11.17
7.51
4.45
2.93
3.12
4.35
5.37
5.28
3.80
1.44
-0.84
-2.35
-2.95
-3.25
-4.08
-6.05
-9.11
-12.60
-15.68
-17.67
-18.44
-18.39
-17.97
-17.56
-17.05
-15.94
-13.70
-10.01
-5.09
0.38
5.51
9.67
12.69
14.91
16.89
19.01
21.25
23.19
24.14
23.82
22.34
20.34
18.63
17.66
17.40
17.37
17.00
16.01
14.58
13.24
12.41
12.25
12.50
12.48
11.69
9.83
7.14
4.25
1.85
0.45
-0.01
-0.03
-0.40
-1.65
-3.83
-6.42
-8.56
-9.65
-9.60
-8.93
-8.63
-9.41
-11.54
-14.60
-17.76
-20.33
-21.97
-22.83
-23.19
-23.11
-22.26
-20.04
-16.10
-10.56
-4.24
1.53
5.64
7.49
7.46
6.58
6.08
6.77
8.64
10.99
12.87
13.63
13.36
12.74
12.69
13.71
15.64
17.80
19.18
19.31
18.19
16.44
14.79
13.67
12.98
12.25
10.97
9.05
6.88
5.18
4.48
4.89
5.96
6.81
6.80
5.65
3.74
1.86
0.70
0.63
1.33
2.04
1.93
0.59
-1.77
-4.45
-6.61
-7.78
-8.09
-8.18
-8.97
-10.95
-14.09
-17.71
-20.80
-22.50
-22.49
-21.01
-18.63
-15.88
-12.99
-9.86
-6.36
-2.54
1.23
4.29
6.18
6.74
6.44
6.09
6.42
7.85
10.11
12.46
14.07
14.40
13.50
11.92
10.45
9.62
9.57
9.98
10.23
9.98
9.23
8.39
7.99
8.23
8.77
8.90
7.91
5.62
2.52
-0.40
-2.19
-2.48
-1.61
-0.62
-0.44
-1.61
-3.86
-6.37
-8.26
-9.02
-8.84
-8.47
-8.75
-10.14
-12.43
-14.94
-16.82
-17.52
-17.04
-15.80
-14.49
-13.42
-12.56
-11.57
-9.99
-7.78
-5.33
-3.33
-2.34
-2.42
-3.04
-3.32
-2.53
-0.40
2.74
6.02
8.72
10.36
11.11
11.48
12.02
12.99
14.12
14.81
14.47
12.91
10.52
8.07
6.37
5.83
6.26
7.03
7.24
6.41
4.59
2.29
0.23
-1.15
-1.93
-2.61
-3.75
-5.55
-7.72
-9.56
-10.49
-10.30
-9.30
-8.31
-7.97
-8.66
-10.04
-11.36
-11.81
-10.94
-8.92
-6.48
-4.53
-3.63
-3.79
-4.46
-4.83
-4.31
-2.82
-0.75
1.12
2.35
2.84
2.94
3.27
4.07
5.15
5.88
5.59
4.09
1.80
-0.35
-1.51
-1.28
0.03
1.54
2.49
2.56
2.13
1.99
2.74
4.35
6.06
6.73
5.51
2.42
-1.65
-5.31
-7.30
-7.17
-5.33
-2.82
-0.88
-0.20
-0.85
-2.24
-3.40
-3.49
-2.03
0.85
4.65
8.63
12.11
14.64
15.91
15.77
14.08
10.65
5.62
-0.63
-7.22
-13.04
-17.19
-19.23
-19.53
-18.97
-18.60
-19.05
-20.32
-21.78
-22.51
-21.79
-19.51
-16.07
-12.40
-9.20
-6.82
-5.04
-3.25
-1.07
1.35
3.26
3.74
2.26
-0.88
-4.59
-7.56
-8.86
-8.46
-7.28
-6.50
-7.06
-9.06
-11.85
-14.43
-16.11
-16.87
-17.36
-18.37
-20.42
-23.35
-26.52
-28.96
-30.00
-29.48
-27.56
-24.73
-21.18
-16.95
-11.88
-6.04
0.09
5.78
10.54
14.85
20.33
29.46
44.59
66.83
95.37
127.57
159.46
187.03
206.89
217.02
216.89
207.26
189.71
165.92
137.07
103.67
66.00
25.02
-16.88
-55.82
-87.37
-108.17
-117.22
-116.27
-108.76
-98.34
-87.54
-77.35
-67.88
-59.16
-51.71
-46.30
-43.48
-42.99
-43.72
-44.33
-43.71
-41.61
-38.65
-35.93
-34.51
-34.90
-36.85
-39.55
-41.96
-43.31
-43.42
-42.70
-41.88
-41.60
-42.04
-42.75
-42.84
-41.37
-37.77
-32.11
-25.04
-17.46
-10.11
-3.19
3.63
11.01
19.43
28.84
38.49
47.11
53.35
56.17
55.23
50.82
43.70
34.91
25.61
16.98
10.19
6.10
4.91
5.98
7.91
9.10
8.51
6.15
2.90
-0.05
-1.98
-3.08
-4.12
-6.00
-8.97
-12.47
-15.38
-16.65
-15.85
-13.50
-10.82
-9.14
-9.32
-11.41
-14.67
-18.01
-20.47
-21.66
-21.98
-22.07
-22.53
-23.34
-23.75
-22.70
-19.37
-13.77
-6.71
0.50
6.71
11.45
14.83
17.44
19.80
22.02
23.99
25.40
26.33
27.23
28.92
32.12
37.05
43.18
49.40
54.60
58.30
60.99
63.94
68.49
75.30
83.93
92.81
100.23
105.02
107.20
107.86
108.41
109.83
112.14
114.48
115.77
115.24
112.85
109.08
104.65
100.07
95.49
91.04
86.98
83.98
82.84
83.98
87.11
91.11
94.51
96.22
96.16
95.43
95.80
98.89
105.39
114.77
125.45
135.35
142.79
146.82
147.36
145.05
140.63
134.54
126.68
116.28
102.24
83.50
59.29
29.31
-6.14
-46.26
-89.74
-134.55
-178.21
-217.88
-250.99
-275.86
-292.08
-300.66
-303.57
-303.07
-300.91
-298.01
-294.41
-289.61
-283.10
-274.58
-264.20
-252.45
-239.91
-227.04
-214.10
-201.11
-188.11
-175.24
-162.85
-151.35
-141.03
-131.87
-123.58
-115.79
-108.23
-100.90
-94.07
-87.96
-82.58
-77.48
-71.91
-65.14
-56.87
-47.48
-37.96
-29.42
-22.60
-17.51
-13.47
-9.54
-5.09
-0.12
4.85
9.01
11.93
13.63
14.61
15.53
16.72
18.12
19.29
19.76
19.29
18.07
16.58
15.32
14.64
14.50
14.51
14.22
13.21
11.42
9.11
6.73
4.69
3.14
1.84
0.32
-1.94
-5.17
-9.22
-13.56
-17.60
-20.87
-23.28
-25.30
-27.55
-30.75
-35.35
-41.28
-48.07
-54.87
-60.80
-65.14
-67.51
-67.96
-67.00
-65.48
-64.39
-64.69
-67.07
-71.62
-77.73
-83.99
-88.49
-89.38
-85.58
-77.42
-66.54
-55.18
-44.84
-35.22
-23.75
-6.22
21.43
61.38
112.68
171.17
230.93
285.99
331.89
366.40
389.09
400.61
401.97
394.36
379.38
359.23
336.47
313.35
291.12
269.60
247.31
222.52
194.02
161.69
126.17
88.33
48.81
8.00
-33.51
-74.54
-113.38
-148.35
-178.44
-203.35
-223.13
-237.23
-244.15
-242.00
-229.42
-206.90
-176.96
-143.45
-110.22
-79.82
-53.13
-29.74
-8.80
10.20
27.15
41.37
51.96
58.17
59.51
56.05
48.29
37.22
23.95
9.42
-5.83
-21.71
-38.26
-55.25
-72.01
-87.41
-100.36
-110.11
-116.60
-120.35
-122.19
-122.95
-123.04
-122.58
-121.51
-119.91
-118.17
-117.02
-117.20
-119.15
-122.55
-126.42
-129.41
-130.40
-128.98
-125.63
-121.52
-117.66
-114.26
-110.25
-103.42
-91.23
-71.75
-44.64
-11.38
25.20
61.85
95.92
125.92
151.64
173.75
193.45
212.44
232.69
256.31
284.62
317.31
351.96
384.37
409.82
424.75
427.94
420.64
405.84
386.85
366.29
345.76
326.12
307.85
291.43
277.17
264.97
254.16
243.38
230.86
214.71
193.28
165.59
131.52
91.76
47.50
0.10
-49.52
-101.09
-154.76
-210.58
-267.30
-322.00
-370.25
-407.23
-429.55
-436.56
-430.66
-416.19
-397.67
-378.14
-358.54
-338.36
-316.85
-294.08
-271.15
-249.60
-230.48
-213.79
-198.56
-183.51
-167.85
-151.62
-135.75
-121.40
-109.37
-99.68
-91.61
-84.03
-76.02
-67.30
-58.18
-49.60
-42.32
-36.78
-32.84
-29.94
-27.50
-25.26
-23.36
-22.23
-22.14
-22.93
-23.89
-24.04
-22.44
-18.69
-13.16
-6.67
-0.31
5.12
9.40
12.69
15.43
17.88
19.99
21.60
22.64
23.32
24.14
25.66
28.08
31.06
33.88
35.61
35.80
34.62
32.86
31.61
31.63
33.10
35.47
37.80
39.19
39.15
37.76
35.39
32.59
29.71
26.77
23.75
20.59
17.40
14.51
12.22
10.66
9.65
8.76
7.50
5.63
3.22
0.60
-1.80
-3.71
-5.17
-6.30
-7.26
-7.85
-7.67
-6.27
-3.41
0.60
5.00
8.84
11.42
12.66
13.04
13.44
14.64
17.07
20.62
24.71
28.68
31.94
34.25
35.67
36.43
36.70
36.59
36.04
35.05
33.68
32.24
31.04
30.38
30.34
30.66
30.95
30.67
29.60
27.80
25.66
23.70
22.19
20.98
19.57
17.37
14.09
9.99
5.75
2.12
-0.51
-2.31
-4.01
-6.34
-9.68
-13.72
-17.59
-20.26
-21.00
-19.72
-16.89
-13.24
-9.41
-5.62
-1.77
2.42
7.09
12.01
16.73
20.65
23.45
25.14
26.12
26.95
27.95
29.10
29.99
30.15
29.33
27.70
25.82
24.27
23.47
23.32
23.29
22.83
21.52
19.40
16.87
14.40
12.27
10.42
8.51
6.24
3.57
0.78
-1.68
-3.41
-4.39
-5.01
-5.86
-7.54
-10.13
-13.21
-15.93
-17.34
-16.90
-14.67
-11.29
-7.59
-4.16
-1.21
1.50
4.22
7.03
9.71
11.82
13.13
13.75
14.17
15.01
16.64
18.99
21.60
23.81
25.12
25.41
24.98
24.27
23.73
23.53
23.51
23.28
22.43
20.82
18.62
16.25
14.24
12.82
11.85
10.91
9.47
7.34
4.70
2.06
-0.07
-1.44
-2.24
-3.10
-4.62
-7.21
-10.87
-15.14
-19.35
-22.79
-24.89
-25.32
-24.01
-21.08
-16.79
-11.61
-6.07
-0.75
3.77
7.14
9.17
10.04
10.18
10.14
10.46
11.36
12.72
14.14
15.17
15.60
15.57
15.52
15.85
16.74
17.97
18.98
19.35
18.88
17.83
16.75
16.04
15.76
15.58
14.95
13.53
11.37
8.92
6.75
5.23
4.36
3.74
2.88
1.33
-0.98
-3.94
-7.27
-10.71
-14.16
-17.58
-20.84
-23.57
-25.12
-24.79
-22.08
-17.04
-10.39
-3.30
2.86
7.14
9.21
9.52
8.99
8.57
8.82
9.79
11.09
12.26
13.07
13.70
14.50
15.79
17.52
19.24
20.39
20.48
19.53
17.98
16.46
15.46
14.97
14.62
13.83
12.26
10.05
7.70
5.85
4.84
4.57
4.57
4.15
2.99
1.13
-0.96
-2.74
-3.91
-4.64
-5.54
-7.27
-10.18
-13.93
-17.58
-19.91
-19.91
-17.23
-12.41
-6.50
-0.74
4.00
7.42
9.66
11.10
11.99
12.30
11.90
10.75
9.12
7.58
6.84
7.32
8.98
11.31
13.46
14.77
14.97
14.31
13.41
12.83
12.78
12.99
12.90
12.00
10.18
7.79
5.48
3.87
3.22
3.23
3.37
2.98
1.78
-0.08
-2.17
-4.05
-5.63
-7.22
-9.30
-12.08
-15.18
-17.68
-18.50
-16.99
-13.31
-8.35
-3.49
0.22
2.37
3.28
3.79
4.56
5.84
7.34
8.52
9.03
8.95
8.79
9.12
10.23
11.94
13.54
14.33
13.82
12.17
10.02
8.20
7.31
7.35
7.73
7.61
6.40
4.13
1.40
-0.87
-2.01
-1.89
-1.02
-0.31
-0.46
-1.78
-4.03
-6.66
-9.22
-11.52
-13.61
-15.59
-17.32
-18.37
-18.14
-16.26
-12.81
-8.39
-4.02
-0.65
1.13
1.41
0.82
0.27
0.44
1.51
3.05
4.39
5.01
4.87
4.40
4.29
4.96
6.33
7.87
8.77
8.59
7.38
5.69
4.30
3.70
3.89
4.38
4.55
4.01
2.84
1.49
0.45
-0.01
-0.05
-0.14
-0.74
-2.10
-4.06
-6.21
-8.12
-9.53
-10.50
-11.25
-12.00
-12.73
-13.10
-12.71
-11.20
-8.58
-5.28
-1.95
0.68
2.27
2.89
2.93
2.94
3.22
3.84
4.60
5.29
5.82
6.31
6.94
7.75
8.58
9.04
8.66
7.16
4.57
1.31
-2.00
-4.77
-6.70
-7.84
-8.49
-8.92
-9.22
-9.24
-8.73
-7.54
-5.71
-3.51
-1.23
0.92
2.84
4.53
5.89
6.72
6.71
5.59
3.29
0.11
-3.44
-6.68
-9.05
-10.32
-10.52
-9.95
-8.96
-7.83
-6.73
-5.70
-4.76
-3.90
-3.11
-2.34
-1.53
-0.63
0.32
1.20
1.86
2.23
2.32
2.32
2.40
2.67
3.10
3.56
3.84
3.84
3.60
3.34
3.33
3.79
4.69
5.82
6.85
7.46
7.56
7.22
6.57
5.70
4.56
3.08
1.23
-0.90
-3.10
-5.24
-7.37
-9.65
-12.15
-14.60
-16.45
-17.04
-15.97
-13.43
-10.12
-7.02
-4.86
-3.88
-3.74
-3.69
-3.10
-1.69
0.33
2.43
4.16
5.28
5.94
6.44
7.09
7.96
8.84
9.50
9.68
9.38
8.77
8.06
7.37
6.59
5.48
3.79
1.47
-1.25
-3.89
-5.92
-7.01
-7.21
-6.86
-6.57
-6.75
-7.53
-8.71
-9.86
-10.76
-11.49
-12.45
-14.04
-16.35
-18.92
-20.97
-21.73
-20.83
-18.49
-15.44
-12.41
-9.89
-7.90
-6.14
-4.27
-2.20
-0.16
1.45
2.29
2.40
2.09
1.90
2.25
3.29
4.75
6.19
7.07
7.19
6.63
5.72
4.88
4.30
3.89
3.35
2.44
1.18
-0.10
-0.86
-0.75
0.28
1.90
3.45
4.42
4.53
3.91
3.01
2.28
1.98
1.99
1.94
1.34
-0.07
-2.20
-4.62
-6.70
-7.94
-8.14
-7.43
-6.23
-4.94
-3.78
-2.76
-1.71
-0.55
0.63
1.53
1.84
1.45
0.58
-0.24
-0.48
0.20
1.78
3.74
5.53
6.66
7.07
7.05
7.06
7.41
8.07
8.72
8.97
8.66
7.98
7.27
6.93
7.05
7.40
7.58
7.17
6.12
4.65
3.23
2.28
1.95
2.02
2.02
1.49
0.28
-1.42
-3.13
-4.43
-5.16
-5.48
-5.87
-6.62
-7.78
-8.95
-9.52
-9.00
-7.36
-5.09
-2.96
-1.62
-1.26
-1.56
-1.90
-1.71
-0.81
0.51
1.81
2.59
2.78
2.60
2.43
2.55
2.88
3.03
2.51
1.09
-0.99
-3.10
-4.43
-4.53
-3.43
-1.72
-0.26
0.29
-0.25
-1.53
-2.88
-3.72
-3.86
-3.61
-3.59
-4.32
-6.00
-8.34
-10.76
-12.60
-13.55
-13.73
-13.57
-13.69
-14.40
-15.66
-17.02
-17.86
-17.75
-16.65
-15.00
-13.45
-12.56
-12.57
-13.27
-14.21
-14.89
-14.98
-14.57
-13.86
-13.24
-12.97
-13.19
-13.96
-15.32
-17.29
-19.77
-22.40
-24.49
-25.13
-23.55
-19.44
-13.25
-6.06
0.94
7.25
13.65
22.10
34.85
53.19
76.35
101.56
125.21
144.48
158.65
169.05
178.16
188.04
199.38
211.51
223.01
232.64
239.58
243.29
243.23
238.79
229.77
217.00
202.44
188.68
177.88
170.77
166.32
162.45
157.25
149.95
141.22
132.30
123.95
115.49
104.89
89.70
68.29
40.74
8.95
-24.17
-55.62
-83.17
-105.42
-121.79
-132.33
-137.85
-140.17
-141.93
-145.99
-154.34
-167.21
-182.96
-198.70
-211.62
-220.03
-223.82
-224.02
-222.04
-218.92
-215.10
-210.63
-205.57
-199.97
-193.98
-187.39
-179.76
-170.57
-159.52
-146.80
-132.94
-118.67
-104.61
-91.17
-78.42
-65.93
-52.76
-37.54
-19.02
3.18
28.12
53.61
77.08
96.67
112.08
124.60
136.40
149.34
164.11
180.10
195.94
210.31
222.66
233.21
242.46
250.62
256.97
260.08
258.19
249.83
234.45
212.56
185.50
154.86
121.97
87.57
51.95
15.22
-22.47
-60.93
-100.09
-140.12
-181.27
-223.45
-265.67
-305.74
-340.45
-366.09
-379.41
-378.52
-363.73
-337.58
-304.39
-269.16
-236.15
-207.86
-184.45
-163.98
-143.24
-118.84
-88.14
-50.05
-5.33
43.54
92.86
138.58
177.15
206.35
225.35
234.57
235.22
228.88
217.38
202.71
186.88
171.51
157.41
144.35
131.38
117.33
101.57
84.18
65.87
47.57
30.08
13.80
-1.10
-14.65
-27.07
-38.84
-50.82
-64.05
-79.32
-96.78
-115.78
-135.08
-153.34
-169.62
-183.63
-195.56
-205.90
-215.32
-224.60
-234.65
-246.14
-258.87
-271.25
-280.17
-281.78
-272.65
-250.99
-217.12
-173.33
-123.26
-71.16
-21.21
22.92
58.52
84.21
100.11
107.82
110.02
109.79
109.89
112.08
116.66
122.44
127.04
128.00
123.88
115.21
104.63
95.95
92.68
96.61
107.18
121.92
137.32
150.02
157.54
158.38
151.89
137.97
116.87
89.54
57.73
24.06
-8.36
-36.70
-59.13
-75.10
-85.13
-90.09
-90.53
-86.51
-77.93
-65.27
-50.12
-35.01
-22.57
-14.37
-10.24
-8.47
-6.81
-3.80
0.41
4.14
5.18
2.05
-5.15
-14.61
-23.68
-29.97
-32.20
-30.53
-26.20
-20.88
-15.94
-12.17
-9.74
-8.54
-8.39
-9.39
-11.86
-16.03
-21.71
-28.11
-33.99
-38.18
-40.01
-39.64
-37.87
-35.46
-32.73
-29.19
-23.79
-15.33
-2.96
13.64
34.11
57.69
83.19
108.70
132.44
153.07
169.71
181.65
188.46
190.23
187.68
182.06
174.22
164.91
154.86
144.61
134.26
123.49
111.70
97.97
81.12
58.54
28.65
-7.92
-48.48
-89.62
-128.51
-163.53
-194.45
-221.83
-250.03
-280.96
-312.02
-337.24
-351.35
-352.52
-343.07
-328.42
-315.17
-316.50
-339.21
-379.61
-425.81
-465.13
-488.43
-490.53
-469.46
-426.31
-378.01
-340.29
-321.17
-321.19
-339.15
-373.85
-421.91
-476.99
-531.86
-597.06
-679.65
-775.34
-869.89
-949.59
-1007.16
-1041.47
-1056.12
-957.91
-715.69
-376.98
-35.08
241.98
436.77
562.79
641.30
689.39
717.92
717.62
684.01
624.52
558.78
503.01
463.72
440.13
427.95
422.46
408.01
375.96
329.97
282.93
246.87
224.20
213.36
210.85
213.33
210.67
197.24
174.82
150.68
131.01
117.99
111.33
109.57
111.28
111.88
108.75
102.64
96.64
93.09
92.41
94.17
97.80
103.01
108.59
113.93
119.35
125.70
133.31
141.85
151.07
160.93
171.75
184.09
198.58
215.74
235.69
257.78
280.26
300.45
315.06
321.13
317.21
303.74
283.11
258.57
233.17
209.03
187.06
167.35
149.55
133.42
118.86
105.77
93.90
82.72
71.58
59.95
47.59
34.82
22.31
10.93
1.39
-6.22
-12.48
-18.57
-25.82
-35.00
-45.87
-57.01
-66.38
-71.95
-72.69
-68.93
-62.12
-54.43
-47.55
-42.29
-38.50
-35.34
-32.16
-28.81
-25.74
-23.54
-22.41
-21.92
-21.12
-19.16
-15.68
-11.12
-6.67
-3.41
-2.09
-2.50
-3.71
-4.68
-4.72
-3.99
-3.37
-3.95
-6.35
-10.35
-15.03
-19.17
-21.98
-23.50
-24.50
-26.28
-29.63
-34.72
-40.78
-46.45
-50.42
-51.87
-50.65
-47.16
-41.90
-35.37
-27.91
-20.03
-12.33
-5.51
-0.35
2.98
4.71
5.62
6.61
8.33
10.87
13.74
16.19
17.60
17.83
17.35
16.83
16.97
17.95
19.40
20.60
20.62
19.08
16.10
12.27
8.45
5.14
2.34
-0.44
-3.77
-7.94
-12.82
-17.85
-22.49
-26.29
-28.99
-30.57
-30.75
-29.14
-25.29
-18.92
-10.34
-0.47
9.30
17.55
23.32
26.39
27.32
27.02
26.56
26.60
27.27
28.38
29.34
29.83
29.77
29.39
29.03
28.84
28.56
27.64
25.57
22.26
18.13
14.05
10.74
8.46
6.90
5.12
2.47
-1.36
-6.01
-10.79
-15.16
-19.00
-22.57
-26.16
-29.58
-31.99
-32.14
-29.06
-22.55
-13.50
-3.65
5.19
11.53
15.04
16.28
16.34
16.25
16.45
16.72
16.54
15.63
14.30
13.40
13.92
16.24
19.88
23.61
25.80
25.41
22.25
17.20
11.70
7.06
3.89
1.92
0.23
-2.16
-5.85
-10.75
-16.45
-22.28
-27.82
-32.82
-36.96
-39.85
-40.67
-38.64
-33.36
-25.22
-15.57
-6.29
0.76
4.57
5.29
4.05
2.39
1.51
1.86
3.14
4.55
5.56
6.03
6.36
7.18
8.81
11.03
13.13
14.21
13.68
11.58
8.59
5.55
3.14
1.49
0.11
-1.60
-4.19
-7.54
-11.25
-14.80
-17.99
-21.09
-24.55
-28.55
-32.48
-35.07
-34.90
-31.10
-24.04
-15.20
-6.61
-0.20
3.25
4.09
3.56
3.14
3.81
5.72
8.23
10.44
11.69
11.89
11.56
11.37
11.77
12.68
13.43
13.31
11.71
8.76
5.16
1.82
-0.46
-1.62
-2.23
-3.23
-5.35
-8.77
-13.01
-17.19
-20.63
-22.97
-24.30
-24.97
-25.00
-24.16
-21.97
-18.02
-12.45
-6.00
0.13
4.79
7.36
8.06
7.85
7.87
9.03
11.53
14.75
17.73
19.44
19.55
18.39
16.78
15.65
15.35
15.56
15.54
14.54
12.38
9.51
6.83
5.03
4.25
3.98
3.17
1.06
-2.58
-7.27
-12.14
-16.47
-19.95
-22.80
-25.30
-27.41
-28.53
-27.71
-24.24
-18.06
-10.07
-1.90
4.89
9.19
11.04
11.30
11.20
11.75
13.17
15.00
16.43
16.91
16.48
15.68
15.28
15.69
16.72
17.72
17.73
16.26
13.30
9.46
5.62
2.46
0.20
-1.48
-3.13
-5.24
-7.91
-10.86
-13.70
-16.13
-18.26
-20.52
-23.23
-26.34
-29.09
-30.25
-28.74
-24.08
-16.94
-8.89
-1.76
3.18
5.73
6.69
7.38
8.78
11.17
14.14
16.80
18.62
19.52
19.95
20.49
21.42
22.51
23.17
22.79
21.17
18.60
15.77
13.32
11.57
10.40
9.29
7.73
5.36
2.33
-0.85
-3.65
-5.73
-7.35
-9.20
-12.11
-16.51
-21.94
-27.18
-30.58
-30.86
-27.67
-21.73
-14.62
-7.91
-2.71
0.75
2.93
4.51
5.98
7.40
8.57
9.31
9.71
10.17
11.21
13.14
15.88
18.85
21.32
22.57
22.44
21.24
19.66
18.39
17.68
17.27
16.54
14.92
12.28
8.97
5.69
3.10
1.47
0.64
-0.05
-1.12
-2.93
-5.50
-8.58
-11.95
-15.54
-19.40
-23.42
-27.12
-29.57
-29.68
-26.71
-20.62
-12.35
-3.55
4.08
9.36
12.06
12.88
12.94
13.26
14.21
15.52
16.56
16.85
16.42
15.82
15.83
16.92
18.98
21.34
22.98
23.27
22.10
19.98
17.78
16.11
15.12
14.38
13.31
11.49
8.93
6.05
3.31
1.01
-0.87
-2.68
-4.74
-7.22
-9.94
-12.52
-14.65
-16.25
-17.64
-19.34
-21.77
-24.84
-27.81
-29.51
-28.82
-25.25
-19.27
-12.08
-5.35
-0.24
2.87
4.44
5.39
6.48
7.86
9.18
9.92
9.85
9.25
8.79
9.06
10.24
12.03
13.63
14.42
14.05
12.77
11.19
9.90
9.28
9.13
8.90
7.93
5.90
3.03
-0.01
-2.37
-3.54
-3.58
-3.10
-3.12
-4.31
-6.94
-10.65
-14.72
-18.44
-21.35
-23.24
-23.97
-23.37
-21.14
-17.10
-11.51
-5.07
1.18
6.09
9.07
10.13
9.93
9.49
9.56
10.47
11.87
13.10
13.52
12.98
11.90
10.95
10.77
11.50
12.78
13.97
14.46
14.10
13.20
12.24
11.61
11.25
10.68
9.28
6.72
3.23
-0.45
-3.43
-5.14
-5.57
-5.28
-5.21
-6.07
-8.22
-11.44
-15.15
-18.74
-21.71
-23.85
-25.13
-25.52
-24.95
-23.24
-20.33
-16.34
-11.66
-6.93
-2.73
0.40
2.40
3.50
4.14
4.85
5.84
7.03
8.09
8.70
8.75
8.48
8.39
8.88
10.07
11.69
13.11
13.78
13.36
12.01
10.27
8.74
7.78
7.27
6.71
5.50
3.34
0.45
-2.54
-4.86
-6.03
-6.16
-5.78
-5.75
-6.66
-8.71
-11.65
-14.91
-17.99
-20.59
-22.60
-23.95
-24.34
-23.39
-20.70
-16.25
-10.56
-4.56
0.55
3.97
5.42
5.37
4.71
4.27
4.56
5.48
6.54
7.18
7.16
6.65
6.12
6.02
6.55
7.47
8.37
8.70
8.25
7.10
5.54
3.98
2.55
1.14
-0.55
-2.75
-5.31
-7.80
-9.59
-10.28
-9.93
-9.12
-8.84
-9.81
-12.23
-15.50
-18.41
-19.72
-18.66
-15.39
-10.80
-6.14
-2.36
0.23
1.90
3.27
4.76
6.40
7.85
8.60
8.48
7.71
6.78
6.27
6.38
6.84
7.13
6.80
5.84
4.69
4.03
4.35
5.66
7.42
8.71
8.83
7.55
5.25
2.72
0.69
-0.54
-1.21
-1.96
-3.44
-5.93
-9.25
-12.90
-16.24
-18.79
-20.28
-20.60
-19.78
-17.83
-14.84
-11.03
-6.79
-2.75
0.44
2.28
2.66
1.95
0.88
0.26
0.57
1.84
3.64
5.24
6.18
6.30
5.91
5.51
5.47
5.87
6.38
6.56
6.06
4.91
3.48
2.28
1.73
1.94
2.62
3.31
3.48
2.86
1.53
-0.20
-1.88
-3.29
-4.43
-5.56
-6.92
-8.54
-10.21
-11.52
-12.16
-12.01
-11.18
-10.02
-8.71
-7.33
-5.73
-3.77
-1.48
0.86
2.78
3.86
4.01
3.52
2.95
2.85
3.56
5.06
6.98
8.92
10.48
11.55
12.27
12.87
13.59
14.40
14.99
14.91
13.87
11.98
9.74
7.91
7.00
7.12
7.86
8.45
8.29
7.11
5.22
3.21
1.67
0.81
0.40
-0.04
-0.96
-2.48
-4.31
-6.06
-7.42
-8.40
-9.35
-10.56
-12.18
-13.81
-14.76
-14.37
-12.33
-9.00
-5.21
-1.97
0.08
0.85
0.86
0.87
1.47
2.82
4.62
6.21
7.12
7.17
6.64
6.09
5.95
6.38
7.09
7.62
7.62
7.01
6.07
5.13
4.50
4.22
4.03
3.67
2.85
1.58
0.10
-1.25
-2.14
-2.52
-2.60
-2.81
-3.45
-4.57
-5.85
-6.76
-6.92
-6.27
-5.21
-4.50
-4.73
-6.15
-8.36
-10.54
-11.82
-11.69
-10.26
-8.18
-6.24
-4.93
-4.28
-3.87
-3.19
-1.98
-0.50
0.80
1.34
1.08
0.39
-0.09
0.23
1.40
2.94
4.09
4.27
3.43
2.08
1.00
0.72
1.32
2.38
3.20
3.38
2.86
1.98
1.25
0.94
0.98
0.99
0.53
-0.61
-2.24
-3.87
-5.02
-5.40
-5.12
-4.71
-4.68
-5.44
-6.89
-8.47
-9.43
-9.19
-7.68
-5.43
-3.32
-2.06
-1.85
-2.28
-2.55
-2.07
-0.72
1.10
2.60
3.25
3.00
2.31
1.89
2.22
3.27
4.52
5.34
5.33
4.59
3.63
3.02
3.14
3.90
4.81
5.35
5.10
4.13
2.86
1.82
1.41
1.55
1.78
1.44
0.15
-2.02
-4.50
-6.48
-7.43
-7.26
-6.43
-5.76
-5.76
-6.60
-7.95
-9.23
-9.98
-10.16
-10.05
-10.08
-10.45
-10.97
-11.13
-10.45
-8.70
-6.12
-3.36
-1.03
0.36
0.83
0.74
0.60
0.81
1.44
2.22
2.76
2.84
2.57
2.33
2.61
3.64
5.26
6.98
8.13
8.35
7.66
6.47
5.42
4.89
4.87
4.94
4.57
3.50
1.93
0.43
-0.41
-0.29
0.64
1.70
2.22
1.72
0.30
-1.54
-3.09
-3.87
-3.88
-3.63
-3.80
-4.85
-6.75
-9.00
-10.90
-11.95
-12.08
-11.66
-11.29
-11.30
-11.65
-11.90
-11.49
-10.14
-8.01
-5.67
-3.81
-2.86
-2.81
-3.26
-3.64
-3.53
-2.80
-1.76
-0.76
-0.14
0.11
0.26
0.67
1.56
2.75
3.79
4.12
3.48
2.10
0.62
-0.19
0.08
1.26
2.74
3.61
3.40
2.11
0.32
-1.17
-1.90
-1.89
-1.70
-1.95
-2.99
-4.60
-6.17
-7.05
-6.97
-6.14
-5.33
-5.26
-6.34
-8.37
-10.59
-12.13
-12.33
-11.21
-9.32
-7.46
-6.20
-5.55
-5.09
-4.19
-2.50
-0.20
2.14
3.77
4.38
4.17
3.77
3.96
5.11
7.07
9.19
10.81
11.59
11.63
11.34
11.00
10.66
10.04
8.72
6.61
3.85
1.00
-1.33
-2.74
-3.19
-3.00
-2.74
-2.94
-3.85
-5.33
-6.94
-8.12
-8.48
-8.03
-7.13
-6.52
-6.76
-8.15
-10.48
-13.17
-15.56
-17.23
-18.07
-18.22
-17.87
-17.02
-15.56
-13.44
-10.80
-8.07
-5.93
-4.82
-4.82
-5.39
-5.66
-4.87
-2.75
0.31
3.44
5.73
6.68
6.45
5.63
5.02
5.03
5.63
6.42
6.76
6.36
5.25
3.87
2.76
2.26
2.31
2.56
2.60
2.23
1.61
1.13
1.08
1.46
1.88
1.64
0.24
-2.47
-6.10
-9.92
-13.18
-15.42
-16.61
-17.02
-16.98
-16.59
-15.69
-14.07
-11.58
-8.42
-5.03
-1.99
0.16
1.24
1.39
0.99
0.51
0.26
0.28
0.47
0.67
0.92
1.42
2.53
4.37
6.82
9.43
11.45
12.41
12.11
10.89
9.46
8.43
8.14
8.33
8.40
7.67
5.87
3.30
0.70
-1.09
-1.61
-1.00
0.11
0.83
0.56
-0.85
-3.05
-5.50
-7.76
-9.73
-11.51
-13.18
-14.57
-15.19
-14.44
-12.06
-8.25
-3.79
0.28
3.15
4.53
4.80
4.77
5.21
6.49
8.44
10.48
12.04
12.86
13.15
13.36
13.88
14.82
15.84
16.47
16.27
15.20
13.56
11.87
10.54
9.66
8.94
7.90
6.22
3.97
1.60
-0.21
-1.01
-0.72
0.21
1.00
1.02
-0.03
-1.92
-4.02
-5.70
-6.53
-6.48
-5.82
-4.86
-3.74
-2.38
-0.63
1.64
4.33
7.06
9.45
11.05
11.77
11.74
11.35
11.06
11.08
11.33
11.50
11.23
10.48
9.48
8.72
8.54
8.94
9.55
9.71
9.03
7.48
5.46
3.60
2.33
1.68
1.27
0.59
-0.70
-2.54
-4.45
-5.89
-6.56
-6.58
-6.47
-6.84
-8.03
-9.79
-11.40
-12.05
-11.20
-8.94
-5.87
-2.81
-0.38
1.26
2.32
3.20
4.19
5.39
6.67
7.78
8.52
8.78
8.63
8.27
7.89
7.65
7.59
7.62
7.63
7.47
7.06
6.44
5.71
5.01
4.46
4.06
3.72
3.29
2.71
1.99
1.25
0.62
0.13
-0.30
-0.84
-1.65
-2.74
-4.00
-5.27
-6.43
-7.45
-8.44
-9.50
-10.64
-11.69
-12.38
-12.43
-11.65
-10.05
-7.87
-5.48
-3.30
-1.64
-0.66
-0.27
-0.22
-0.19
0.13
0.82
1.78
2.77
3.63
4.31
4.85
5.28
5.53
5.47
5.10
4.65
4.53
5.12
6.50
8.33
9.99
10.92
10.88
10.07
9.00
8.10
7.50
6.92
5.87
4.03
1.47
-1.31
-3.66
-5.02
-5.28
-4.79
-4.10
-3.77
-3.98
-4.62
-5.40
-6.05
-6.54
-7.08
-7.88
-8.97
-10.06
-10.65
-10.29
-8.84
-6.54
-3.96
-1.80
-0.47
-0.02
-0.10
-0.16
0.25
1.22
2.50
3.64
4.25
4.27
3.99
3.86
4.28
5.34
6.70
7.84
8.20
7.57
6.19
4.54
3.19
2.40
2.02
1.58
0.65
-0.88
-2.76
-4.41
-5.35
-5.41
-4.82
-4.25
-4.23
-5.09
-6.68
-8.54
-10.19
-11.41
-12.34
-13.28
-14.42
-15.58
-16.22
-15.77
-13.86
-10.73
-7.15
-4.05
-2.17
-1.59
-1.82
-2.03
-1.52
-0.14
1.68
3.22
3.90
3.69
3.04
2.66
3.04
4.20
5.70
6.78
6.99
6.25
4.98
3.77
3.06
2.87
2.80
2.34
1.14
-0.68
-2.61
-4.05
-4.58
-4.24
-3.52
-3.01
-3.20
-4.14
-5.53
-6.87
-7.81
-8.35
-8.80
-9.61
-10.95
-12.57
-13.85
-14.07
-12.78
-10.07
-6.53
-3.13
-0.59
0.77
1.17
1.21
1.45
2.11
2.98
3.63
3.72
3.28
2.68
2.43
2.84
3.85
5.01
5.81
5.87
5.27
4.41
3.80
3.80
4.35
5.01
5.23
4.62
3.26
1.58
0.26
-0.16
0.42
1.72
3.01
3.70
3.48
2.48
1.15
-0.07
-0.99
-1.79
-2.81
-4.26
-6.00
-7.49
-8.09
-7.31
-5.13
-2.13
0.87
3.06
4.07
4.10
3.70
3.54
3.97
4.79
5.50
5.61
4.99
4.04
3.43
3.71
4.95
6.75
8.29
8.98
8.67
7.69
6.69
6.07
5.84
5.53
4.60
2.79
0.37
-2.00
-3.64
-4.18
-3.84
-3.31
-3.30
-4.34
-6.37
-8.89
-11.25
-12.90
-13.69
-13.84
-13.73
-13.63
-13.57
-13.29
-12.48
-11.01
-9.08
-7.14
-5.79
-5.30
-5.57
-6.12
-6.29
-5.68
-4.36
-2.80
-1.60
-1.03
-0.94
-0.71
0.20
2.07
4.62
7.14
8.93
9.55
9.05
7.91
6.65
5.64
4.86
4.01
2.75
0.97
-1.04
-2.77
-3.64
-3.50
-2.66
-1.79
-1.78
-3.04
-5.49
-8.49
-11.15
-12.79
-13.22
-12.73
-11.83
-10.87
-9.89
-8.69
-7.05
-4.92
-2.57
-0.51
0.85
1.33
1.18
0.93
1.10
2.01
3.51
5.04
5.95
5.83
4.75
3.19
1.83
1.20
1.37
2.05
2.64
2.78
2.42
1.85
1.58
1.89
2.66
3.39
3.42
2.44
0.58
-1.46
-2.95
-3.39
-2.87
-2.07
-1.78
-2.60
-4.53
-6.99
-9.19
-10.50
-10.79
-10.40
-9.85
-9.49
-9.27
-8.85
-7.76
-5.85
-3.33
-0.71
1.36
2.60
3.07
3.19
3.45
4.11
5.10
6.08
6.71
6.92
6.94
7.15
7.79
8.82
9.90
10.47
10.21
9.03
7.31
5.67
4.65
4.56
5.27
6.33
7.23
7.68
7.76
7.80
8.24
9.21
10.41
11.25
10.93
9.06
5.79
1.81
-1.79
-4.13
-4.79
-4.01
-2.38
-0.56
1.12
2.68
4.31
6.10
7.84
8.91
8.82
7.32
4.77
1.99
-0.13
-1.00
-0.68
0.23
0.95
0.97
0.33
-0.44
-0.68
-0.02
1.40
3.05
4.20
4.52
4.13
3.53
3.33
3.72
4.42
4.81
4.42
3.33
2.21
2.01
3.28
5.85
8.75
10.61
10.47
8.12
4.34
0.46
-2.33
-3.36
-2.70
-0.96
1.24
3.53
5.92
8.53
11.38
14.18
16.31
17.22
16.55
14.53
11.73
8.81
6.11
3.37
-0.00
-4.56
-10.24
-16.31
-21.65
-25.31
-27.05
-27.29
-26.75
-26.03
-25.23
-24.15
-22.66
-20.97
-19.65
-19.27
-19.94
-21.21
-22.16
-21.88
-19.78
-15.90
-10.62
-4.65
1.22
6.25
9.70
11.14
10.38
7.68
3.59
-1.26
-6.37
-11.42
-16.16
-20.18
-22.92
-23.78
-22.53
-19.48
-15.45
-11.57
-8.68
-7.12
-6.61
-6.52
-6.26
-5.57
-4.56
-3.51
-2.53
-1.45
0.16
2.66
6.07
9.87
13.13
14.95
14.66
12.41
9.01
5.68
3.63
3.44
4.82
6.75
7.94
7.40
4.91
1.10
-2.96
-6.16
-7.87
-8.18
-7.53
-6.55
-5.60
-4.66
-3.52
-2.03
-0.29
1.27
2.17
2.08
1.11
-0.28
-1.44
-1.85
-1.32
0.04
1.90
4.14
6.85
10.29
14.62
19.52
24.11
27.15
27.60
25.10
20.18
14.11
8.26
3.71
0.84
-0.70
-1.50
-2.15
-2.95
-3.89
-4.92
-6.09
-7.68
-9.93
-12.80
-15.77
-17.89
-18.18
-16.04
-11.62
-5.81
0.09
4.84
7.80
9.02
9.11
8.85
8.73
8.81
8.82
8.49
7.78
7.00
6.64
7.03
8.14
9.55
10.54
10.62
9.64
7.97
6.29
5.17
4.82
4.94
4.92
4.23
2.75
0.81
-1.03
-2.28
-2.84
-3.07
-3.51
-4.77
-6.99
-9.92
-12.95
-15.33
-16.55
-16.44
-15.21
-13.27
-10.98
-8.57
-6.05
-3.45
-0.78
1.79
3.95
5.51
6.41
6.87
7.25
7.83
8.68
9.55
10.08
9.98
9.29
8.44
7.99
8.47
10.04
12.40
14.94
16.87
17.66
17.09
15.30
12.68
9.61
6.38
3.12
-0.08
-3.12
-5.81
-8.00
-9.70
-11.13
-12.72
-14.97
-18.02
-21.55
-24.72
-26.43
-25.88
-22.88
-18.02
-12.48
-7.45
-3.63
-1.05
0.81
2.62
4.71
6.94
8.88
10.09
10.54
10.64
10.96
11.91
13.38
14.76
15.29
14.52
12.55
10.07
8.05
7.19
7.65
9.05
10.56
11.53
11.61
10.90
9.84
8.83
8.02
7.25
6.14
4.42
2.08
-0.50
-2.85
-4.53
-5.45
-5.94
-6.56
-7.99
-10.55
-14.18
-18.44
-22.55
-25.85
-27.86
-28.43
-27.59
-25.47
-22.18
-17.84
-12.73
-7.31
-2.19
1.96
4.78
6.27
6.87
7.21
7.84
9.00
10.57
12.20
13.58
14.56
15.27
15.90
16.65
17.45
18.06
18.16
17.55
16.34
14.91
13.75
13.21
13.27
13.53
13.46
12.71
11.35
9.82
8.65
8.11
8.00
7.82
6.92
5.06
2.38
-0.64
-3.51
-6.09
-8.55
-11.22
-14.22
-17.21
-19.41
-19.90
-18.12
-14.15
-8.71
-2.99
1.89
5.17
6.72
6.95
6.54
6.10
5.96
6.09
6.27
6.39
6.52
6.97
8.01
9.71
11.74
13.46
14.05
13.06
10.43
6.67
2.65
-0.81
-3.21
-4.57
-5.31
-5.95
-6.85
-7.98
-9.03
-9.58
-9.44
-8.79
-8.01
-7.55
-7.57
-7.89
-8.17
-8.12
-7.79
-7.60
-8.11
-9.69
-12.27
-15.30
-17.99
-19.67
-19.97
-18.91
-16.87
-14.19
-11.16
-7.92
-4.50
-1.06
2.13
4.64
6.09
6.37
5.73
4.74
4.07
4.19
5.17
6.62
7.96
8.64
8.55
7.97
7.39
7.23
7.51
7.82
7.60
6.49
4.57
2.33
0.46
-0.56
-0.66
-0.14
0.43
0.75
0.73
0.60
0.65
0.92
1.20
1.04
0.09
-1.69
-3.94
-6.11
-7.69
-8.52
-8.81
-9.09
-9.85
-11.33
-13.34
-15.33
-16.65
-16.81
-15.75
-13.81
-11.55
-9.45
-7.66
-6.04
-4.30
-2.32
-0.27
1.49
2.52
2.73
2.36
1.90
1.88
2.46
3.49
4.58
5.38
5.87
6.28
6.98
8.18
9.81
11.53
12.85
13.50
13.40
12.86
12.29
12.02
12.18
12.55
12.70
12.20
10.84
8.75
6.33
4.09
2.39
1.34
0.74
0.16
-0.73
-2.13
-4.02
-6.16
-8.32
-10.28
-11.96
-13.30
-14.14
-14.22
-13.22
-11.02
-7.78
-4.02
-0.52
2.04
3.27
3.27
2.58
1.87
1.64
2.02
2.75
3.41
3.75
3.83
3.98
4.61
5.85
7.49
9.06
9.99
10.06
9.37
8.31
7.34
6.65
6.11
5.34
3.99
1.98
-0.40
-2.61
-4.12
-4.73
-4.60
-4.37
-4.65
-5.90
-8.17
-11.07
-14.06
-16.63
-18.51
-19.69
-20.23
-20.12
-19.17
-17.18
-14.07
-10.08
-5.78
-1.82
1.14
2.88
3.55
3.61
3.65
4.05
4.87
5.88
6.73
7.29
7.64
8.09
8.83
9.80
10.61
10.65
9.54
7.23
4.20
1.18
-1.20
-2.68
-3.51
-4.26
-5.48
-7.35
-9.61
-11.69
-13.01
-13.34
-12.97
-12.50
-12.74
-14.14
-16.69
-19.85
-22.79
-24.76
-25.33
-24.48
-22.49
-19.66
-16.23
-12.33
-8.13
-3.94
-0.18
2.66
4.34
4.92
4.89
4.90
5.51
6.93
8.94
10.96
12.40
12.95
12.71
12.09
11.60
11.50
11.69
11.84
11.51
10.58
9.25
7.97
7.20
7.00
7.05
6.72
5.49
3.27
0.46
-2.24
-4.22
-5.22
-5.47
-5.58
-6.15
-7.59
-9.88
-12.65
-15.38
-17.55
-18.83
-19.15
-18.58
-17.23
-15.18
-12.49
-9.22
-5.55
-1.88
1.40
3.85
5.41
6.28
6.87
7.63
8.70
9.88
10.75
10.94
10.43
9.57
8.94
8.99
9.83
11.16
12.33
12.86
12.50
11.48
10.28
9.37
8.91
8.69
8.24
7.12
5.29
3.11
1.21
0.22
0.38
1.44
2.79
3.61
3.48
2.30
0.37
-1.89
-4.17
-6.48
-8.93
-11.52
-13.88
-15.38
-15.28
-13.21
-9.36
-4.48
0.34
4.24
6.79
8.13
8.79
9.26
9.80
10.27
10.34
9.77
8.61
7.31
6.46
6.55
7.69
9.51
11.41
12.63
12.81
11.95
10.44
8.81
7.40
6.20
4.92
3.28
1.17
-1.15
-3.24
-4.76
-5.68
-6.34
-7.36
-9.13
-11.77
-14.96
-18.15
-20.95
-23.24
-25.17
-26.99
-28.67
-29.79
-29.71
-27.88
-24.22
-19.28
-14.06
-9.59
-6.61
-5.08
-4.43
-3.83
-2.60
-0.59
1.86
4.17
5.91
7.06
7.95
9.02
10.49
12.16
13.60
14.22
13.86
12.70
11.26
10.14
9.62
9.61
9.71
9.44
8.53
7.02
5.23
3.53
2.22
1.30
0.56
-0.32
-1.65
-3.53
-5.86
-8.45
-11.12
-13.91
-16.94
-20.32
-23.81
-26.74
-28.17
-27.23
-23.67
-17.98
-11.29
-5.02
-0.13
3.11
5.18
7.00
9.37
12.61
16.43
20.17
23.19
25.19
26.31
26.96
27.56
28.25
28.80
28.81
27.84
25.83
23.06
20.05
17.29
14.93
12.80
10.52
7.86
4.90
2.02
-0.30
-1.88
-2.85
-3.66
-4.88
-6.69
-8.98
-11.30
-13.15
-14.36
-15.06
-15.67
-16.57
-17.77
-18.75
-18.71
-16.85
-12.77
-6.74
0.33
7.26
12.88
16.58
18.34
18.60
18.00
16.97
15.57
13.63
11.06
8.11
5.34
3.50
2.99
3.75
5.20
6.44
6.87
6.29
5.08
3.94
3.41
3.62
4.21
4.54
4.07
2.72
0.88
-0.79
-1.72
-1.75
-1.30
-1.04
-1.66
-3.41
-6.07
-9.09
-11.87
-14.05
-15.58
-16.50
-16.78
-16.16
-14.33
-11.11
-6.77
-1.98
2.39
5.50
7.07
7.30
6.84
6.44
6.60
7.40
8.52
9.46
9.87
9.67
9.13
8.55
8.26
8.29
8.47
8.57
8.37
7.91
7.34
6.86
6.52
6.13
5.26
3.53
0.85
-2.41
-5.56
-7.83
-8.80
-8.67
-8.11
-8.11
-9.32
-11.79
-14.90
-17.59
-18.86
-18.24
-15.92
-12.58
-9.02
-5.82
-3.07
-0.59
1.89
4.43
6.79
8.62
9.58
9.71
9.40
9.20
9.61
10.71
12.11
13.14
13.25
12.33
10.77
9.32
8.61
8.84
9.71
10.50
10.63
9.84
8.36
6.72
5.38
4.47
3.77
2.84
1.42
-0.45
-2.39
-3.93
-4.84
-5.26
-5.75
-6.85
-8.83
-11.40
-13.80
-15.14
-14.82
-12.86
-9.85
-6.63
-3.91
-1.93
-0.54
0.67
1.96
3.35
4.59
5.34
5.49
5.23
5.01
5.36
6.51
8.32
10.25
11.70
12.31
12.21
11.95
12.15
13.18
14.96
16.88
18.30
18.69
18.12
17.01
15.91
15.22
14.88
14.53
13.69
12.15
10.13
8.13
6.69
5.99
5.75
5.36
4.15
1.95
-0.95
-3.78
-5.67
-6.14
-5.23
-3.48
-1.61
-0.12
0.82
1.43
1.96
2.56
3.12
3.28
2.75
1.39
-0.54
-2.58
-4.23
-5.18
-5.54
-5.68
-6.10
-7.01
-8.28
-9.47
-10.03
-9.76
-8.85
-7.80
-7.30
-7.69
-8.96
-10.64
-12.13
-13.00
-13.21
-13.08
-13.12
-13.67
-14.78
-16.13
-17.30
-17.98
-18.11
-17.99
-17.86
-17.91
-17.97
-17.67
-16.63
-14.73
-12.27
-9.82
-8.03
-7.19
-7.13
-7.34
-7.21
-6.38
-4.95
-3.29
-1.95
-1.20
-0.97
-0.94
-0.68
-0.00
0.93
1.70
1.91
1.45
0.54
-0.34
-0.73
-0.44
0.38
1.20
1.56
1.08
-0.16
-1.76
-3.20
-4.08
-4.37
-4.41
-4.73
-5.63
-7.10
-8.70
-9.85
-10.07
-9.30
-7.82
-6.21
-4.85
-3.86
-3.07
-2.13
-0.91
0.44
1.48
1.82
1.37
0.50
-0.12
0.07
1.32
3.32
5.41
6.98
7.70
7.71
7.49
7.52
8.09
9.05
10.00
10.48
10.30
9.63
8.91
8.59
8.84
9.49
10.15
10.31
9.82
8.77
7.51
6.40
5.53
4.69
3.50
1.71
-0.59
-2.97
-4.82
-5.67
-5.37
-4.22
-2.77
-1.52
-0.78
-0.45
-0.25
0.09
0.65
1.19
1.34
0.82
-0.33
-1.72
-2.79
-3.05
-2.39
-1.05
0.48
1.63
2.14
2.07
1.70
1.41
1.33
1.38
1.20
0.52
-0.68
-2.11
-3.23
-3.64
-3.19
-2.19
-1.25
-0.96
-1.67
-3.28
-5.33
-7.27
-8.71
-9.61
-10.27
-11.03
-12.03
-13.07
-13.70
-13.39
-11.98
-9.71
-7.17
-5.11
-3.98
-3.77
-4.08
-4.30
-4.09
-3.48
-2.88
-2.74
-3.15
-3.82
-4.13
-3.61
-2.18
-0.28
1.34
2.09
1.79
0.77
-0.33
-0.93
-0.86
-0.38
-0.02
-0.28
-1.30
-2.80
-4.26
-5.14
-5.19
-4.61
-3.84
-3.49
-3.84
-4.86
-6.22
-7.51
-8.53
-9.32
-10.12
-11.03
-11.86
-12.21
-11.58
-9.80
-7.12
-4.10
-1.54
0.10
0.72
0.65
0.48
0.65
1.36
2.37
3.26
3.63
3.42
2.90
2.57
2.88
3.91
5.39
6.79
7.58
7.58
6.99
6.23
5.77
5.75
5.98
6.05
5.60
4.58
3.26
2.15
1.60
1.75
2.37
2.94
3.07
2.55
1.56
0.53
-0.22
-0.59
-0.86
-1.53
-2.94
-5.03
-7.24
-8.82
-9.11
-7.94
-5.73
-3.16
-1.04
0.23
0.66
0.60
0.51
0.63
0.92
1.12
0.96
0.46
-0.07
-0.10
0.74
2.49
4.77
6.88
8.31
8.83
8.70
8.47
8.59
9.20
10.05
10.68
10.68
9.98
8.87
7.77
7.12
7.07
7.43
7.82
7.77
7.07
5.78
4.21
2.76
1.57
0.47
-0.97
-3.14
-6.04
-9.17
-11.65
-12.66
-11.77
-9.21
-5.78
-2.34
0.44
2.43
3.92
5.28
6.68
7.96
8.78
8.86
8.32
7.62
7.36
7.97
9.49
11.47
13.29
14.31
14.26
13.26
11.71
10.10
8.65
7.28
5.66
3.44
0.52
-2.87
-6.25
-9.14
-11.31
-12.83
-14.10
-15.47
-17.13
-19.01
-20.80
-22.28
-23.44
-24.51
-25.79
-27.40
-29.09
-30.24
-30.19
-28.44
-25.02
-20.44
-15.50
-11.01
-7.41
-4.73
-2.68
-0.87
0.85
2.35
3.35
3.67
3.41
3.01
3.01
3.74
5.16
6.89
8.27
8.91
8.69
7.88
6.97
6.34
6.11
6.07
5.82
4.98
3.50
1.65
-0.07
-1.13
-1.30
-0.78
-0.11
0.04
-0.75
-2.52
-4.91
-7.33
-9.33
-10.68
-11.40
-11.55
-11.10
-9.92
-7.85
-4.97
-1.68
1.42
3.63
4.57
4.26
3.14
1.89
1.06
0.94
1.40
2.10
2.69
3.03
3.20
3.38
3.77
4.35
4.97
5.44
5.53
5.27
4.70
3.98
3.19
2.26
0.99
-0.77
-3.03
-5.54
-7.83
-9.37
-9.91
-9.63
-9.09
-9.16
-10.40
-12.89
-16.03
-18.75
-20.02
-19.26
-16.60
-12.70
-8.41
-4.35
-0.75
2.45
5.40
8.04
10.02
11.00
10.74
9.51
7.98
6.95
7.07
8.39
10.36
12.10
12.82
12.26
10.76
9.15
8.20
8.24
9.02
9.75
9.69
8.47
6.32
3.92
1.94
0.74
0.17
-0.26
-1.03
-2.32
-3.99
-5.76
-7.46
-9.13
-11.01
-13.09
-15.12
-16.38
-16.09
-13.79
-9.63
-4.39
0.72
4.71
7.12
8.19
8.65
9.29
10.54
12.30
14.15
15.54
16.28
16.52
16.73
17.39
18.63
20.20
21.50
21.97
21.35
19.85
18.04
16.51
15.68
15.54
15.69
15.64
14.96
13.64
12.02
10.64
9.95
9.99
10.39
10.45
9.61
7.66
4.89
1.91
-0.71
-2.68
-3.97
-4.79
-5.12
-4.75
-3.34
-0.67
3.00
6.97
10.22
11.94
11.86
10.31
8.12
6.12
4.86
4.40
4.42
4.53
4.50
4.43
4.65
5.45
6.83
8.43
9.63
9.96
9.28
7.99
6.74
6.18
6.56
7.64
8.81
9.30
8.75
7.18
5.05
3.03
1.57
0.74
0.18
-0.67
-2.23
-4.63
-7.52
-10.37
-12.58
-13.75
-13.87
-13.11
-11.84
-10.32
-8.63
-6.78
-4.74
-2.71
-1.04
-0.14
-0.20
-1.00
-2.02
-2.57
-2.21
-0.90
1.00
2.88
4.29
5.01
5.15
5.01
4.84
4.69
4.47
4.02
3.33
2.51
1.80
1.41
1.35
1.47
1.36
0.75
-0.57
-2.42
-4.38
-5.96
-6.80
-6.94
-6.80
-6.99
-7.99
-9.88
-12.30
-14.49
-15.75
-15.62
-14.13
-11.76
-9.12
-6.70
-4.71
-3.01
-1.41
0.14
1.50
2.38
2.60
2.25
1.69
1.34
1.42
1.83
2.13
1.99
1.31
0.42
-0.08
0.28
1.61
3.45
5.04
5.70
5.14
3.65
1.86
0.43
-0.23
-0.17
0.28
0.60
0.49
-0.12
-1.05
-1.98
-2.73
-3.36
-4.11
-5.25
-6.91
-8.92
-10.92
-12.51
-13.43
-13.62
-13.26
-12.51
-11.47
-10.10
-8.25
-5.91
-3.24
-0.65
1.33
2.28
2.14
1.24
0.21
-0.28
0.15
1.50
3.38
5.19
6.54
7.31
7.72
8.17
8.92
9.88
10.72
11.04
10.71
9.94
9.25
9.12
9.76
10.97
12.13
12.71
12.39
11.36
10.17
9.41
9.39
9.94
10.43
10.20
8.86
6.55
3.77
1.21
-0.67
-1.87
-2.68
-3.62
-4.87
-6.31
-7.44
-7.70
-6.82
-5.00
-2.84
-1.05
-0.10
0.07
-0.15
-0.23
0.12
0.84
1.48
1.65
1.20
0.40
-0.19
-0.14
0.67
1.86
2.77
2.79
1.71
-0.10
-1.98
-3.19
-3.33
-2.53
-1.27
-0.30
-0.05
-0.62
-1.76
-3.04
-4.16
-5.11
-6.09
-7.28
-8.66
-9.95
-10.78
-10.99
-10.70
-10.39
-10.67
-11.81
-13.69
-15.67
-16.90
-16.72
-14.94
-11.95
-8.57
-5.63
-3.65
-2.62
-2.17
-1.74
-0.96
0.13
1.26
1.95
1.99
1.51
0.87
0.54
0.67
1.05
1.22
0.78
-0.31
-1.65
-2.59
-2.69
-1.90
-0.67
0.17
0.07
-1.13
-3.03
-4.88
-6.04
-6.32
-6.02
-5.82
-6.32
-7.72
-9.73
-11.73
-13.12
-13.64
-13.54
-13.34
-13.72
-14.98
-16.98
-19.15
-20.73
-21.16
-20.31
-18.50
-16.25
-13.96
-11.70
-9.23
-6.31
-2.88
0.78
4.00
6.31
7.42
7.54
7.23
6.98
7.06
7.35
7.54
7.31
6.66
5.82
5.17
5.07
5.61
6.56
7.63
8.38
8.60
8.28
7.60
6.85
6.18
5.56
4.81
3.73
2.31
0.75
-0.54
-1.28
-1.41
-1.16
-1.06
-1.52
-2.70
-4.38
-6.10
-7.46
-8.27
-8.76
-9.41
-10.65
-12.62
-14.96
-17.02
-18.05
-17.58
-15.69
-12.77
-9.53
-6.43
-3.69
-1.20
1.26
3.77
6.19
8.22
9.65
10.51
11.07
11.73
12.72
14.01
15.35
16.27
16.55
16.15
15.31
14.45
13.88
13.66
13.56
13.23
12.41
11.11
9.67
8.54
8.11
8.46
9.37
10.45
11.30
11.80
12.10
12.48
13.24
14.35
15.48
16.14
15.95
14.92
13.46
12.21
11.61
11.67
11.94
11.63
10.14
7.22
3.23
-1.07
-4.87
-7.64
-9.24
-9.95
-10.11
-10.04
-9.78
-9.23
-8.20
-6.60
-4.58
-2.41
-0.51
0.98
2.15
3.32
4.91
7.06
9.52
11.72
13.02
12.98
11.55
8.97
5.49
1.28
-3.55
-8.87
-14.11
-18.34
-20.52
-19.89
-16.60
-11.76
-7.08
-4.20
-4.00
-6.22
-9.70
-12.93
-14.56
-13.96
-11.22
-6.98
-2.24
2.02
5.01
6.23
5.65
3.55
0.49
-2.93
-6.21
-9.02
-11.15
-12.45
-12.77
-12.08
-10.47
-8.41
-6.39
-4.84
-3.84
-3.00
-1.77
0.25
3.05
6.11
8.73
10.33
10.77
10.28
9.35
8.32
7.24
5.92
4.08
1.70
-1.00
-3.66
-5.94
-7.81
-9.53
-11.46
-13.87
-16.70
-19.66
-22.34
-24.48
-26.10
-27.33
-28.43
-29.35
-29.82
-29.40
-27.70
-24.66
-20.61
-16.25
-12.30
-9.27
-7.19
-5.69
-4.26
-2.46
-0.17
2.33
4.67
6.49
7.83
8.97
10.34
12.18
14.33
16.19
17.08
16.62
14.98
12.81
10.98
9.99
9.80
9.86
9.36
7.79
5.15
1.95
-1.04
-3.28
-4.67
-5.65
-6.85
-8.81
-11.64
-14.99
-18.24
-20.69
-21.87
-21.72
-20.40
-18.24
-15.43
-12.03
-8.04
-3.58
0.94
4.91
7.67
8.93
8.89
8.23
7.84
8.30
9.75
11.78
13.66
14.86
15.18
14.83
14.24
13.71
13.28
12.75
11.86
10.53
8.91
7.33
6.01
5.01
4.13
3.01
1.48
-0.49
-2.62
-4.53
-5.92
-6.76
-7.38
-8.36
-10.14
-12.82
-15.94
-18.57
-19.66
-18.54
-15.16
-10.13
-4.57
0.51
4.44
7.13
8.92
10.25
11.37
12.23
12.63
12.55
12.26
12.34
13.36
15.59
18.76
22.05
24.55
25.54
24.97
23.35
21.50
20.11
19.37
18.85
17.85
15.80
12.61
8.75
5.06
2.20
0.44
-0.45
-1.10
-2.02
-3.52
-5.54
-7.84
-10.20
-12.59
-15.02
-17.40
-19.30
-20.01
-18.82
-15.41
-10.07
-3.72
2.32
7.04
9.90
11.17
11.62
12.09
13.07
14.44
15.65
16.08
15.49
14.21
12.95
12.50
13.16
14.70
16.46
17.59
17.71
16.86
15.55
14.36
13.65
13.31
12.95
12.12
10.63
8.71
6.83
5.38
4.49
3.91
3.13
1.81
-0.14
-2.40
-4.48
-5.99
-6.84
-7.37
-8.09
-9.38
-11.15
-12.81
-13.53
-12.55
-9.68
-5.34
-0.48
3.77
6.69
8.06
8.25
7.95
7.67
7.56
7.41
6.92
6.02
4.99
4.40
4.68
5.93
7.76
9.41
10.25
10.01
8.98
7.84
7.25
7.57
8.60
9.77
10.43
10.27
9.42
8.37
7.66
7.57
7.94
8.32
8.13
7.13
5.37
3.27
1.26
-0.50
-2.20
-4.24
-6.86
-9.85
-12.51
-13.86
-13.17
-10.29
-5.83
-0.97
3.13
5.67
6.58
6.38
5.83
5.51
5.51
5.50
5.05
3.96
2.55
1.44
1.29
2.37
4.35
6.47
7.86
8.08
7.21
5.81
4.55
3.79
3.44
3.06
2.15
0.57
-1.44
-3.40
-4.89
-5.77
-6.24
-6.72
-7.51
-8.72
-10.16
-11.54
-12.64
-13.40
-13.99
-14.60
-15.36
-16.11
-16.50
-16.11
-14.60
-12.02
-8.83
-5.74
-3.59
-2.78
-3.27
-4.49
-5.69
-6.35
-6.38
-6.11
-5.91
-5.89
-5.69
-4.65
-2.28
1.49
6.11
10.52
13.72
15.04
14.41
12.35
9.69
7.19
5.31
4.13
3.36
2.69
1.87
0.87
-0.20
-1.17
-2.05
-2.96
-4.26
-6.19
-8.81
-11.86
-14.79
-17.06
-18.34
-18.61
-18.09
-17.08
-15.79
-14.27
-12.48
-10.44
-8.35
-6.62
-5.63
-5.61
-6.43
-7.66
-8.74
-9.24
-9.08
-8.47
-7.80
-7.36
-7.17
-7.05
-6.72
-6.01
-4.97
-3.80
-2.78
-1.99
-1.35
-0.64
0.35
1.65
3.06
4.24
4.93
5.11
4.97
4.88
5.08
5.65
6.35
6.76
6.56
5.58
4.05
2.37
1.03
0.29
0.14
0.32
0.50
0.50
0.43
0.58
1.27
2.61
4.39
6.24
7.64
8.37
8.44
8.12
7.72
7.43
7.19
6.80
6.06
4.97
3.67
2.51
1.69
1.31
1.24
1.14
0.76
-0.08
-1.30
-2.64
-3.85
-4.80
-5.61
-6.55
-7.90
-9.74
-11.83
-13.71
-14.88
-15.01
-14.13
-12.50
-10.62
-8.84
-7.37
-6.19
-5.14
-4.11
-3.11
-2.29
-1.76
-1.51
-1.39
-1.13
-0.55
0.35
1.35
2.08
2.30
1.95
1.27
0.64
0.39
0.61
1.11
1.46
1.23
0.21
-1.49
-3.49
-5.32
-6.60
-7.26
-7.44
-7.49
-7.68
-8.16
-8.89
-9.73
-10.57
-11.39
-12.23
-13.07
-13.76
-14.02
-13.55
-12.19
-10.01
-7.34
-4.68
-2.48
-0.97
-0.12
0.36
0.79
1.31
1.84
2.12
1.93
1.30
0.53
0.08
0.26
1.08
2.19
3.11
3.44
3.17
2.55
1.98
1.75
1.80
1.86
1.57
0.76
-0.42
-1.61
-2.41
-2.63
-2.37
-2.02
-2.06
-2.81
-4.36
-6.46
-8.60
-10.26
-11.05
-10.87
-9.96
-8.67
-7.38
-6.23
-5.18
-4.02
-2.61
-1.01
0.60
1.90
2.74
3.17
3.46
3.94
4.75
5.76
6.60
6.91
6.60
5.86
5.11
4.74
4.91
5.47
6.00
6.12
5.66
4.72
3.66
2.84
2.45
2.39
2.32
1.90
0.93
-0.52
-2.16
-3.58
-4.52
-4.91
-4.88
-4.65
-4.32
-3.82
-2.98
-1.65
0.12
1.99
3.49
4.24
4.14
3.47
2.73
2.37
2.60
3.27
3.96
4.34
4.25
3.83
3.41
3.24
3.40
3.67
3.71
3.24
2.18
0.76
-0.70
-1.86
-2.57
-2.93
-3.20
-3.75
-4.79
-6.30
-8.01
-9.51
-10.46
-10.76
-10.58
-10.20
-9.82
-9.39
-8.64
-7.28
-5.24
-2.74
-0.39
1.29
1.98
1.79
1.22
0.79
0.83
1.24
1.71
1.87
1.65
1.29
1.14
1.49
2.29
3.10
3.45
2.99
1.78
0.26
-1.00
-1.55
-1.31
-0.61
0.01
0.13
-0.33
-1.15
-1.86
-2.07
-1.61
-0.57
0.75
2.15
3.53
4.93
6.46
8.10
9.56
10.42
10.22
8.81
6.43
3.68
1.22
-0.44
-1.24
-1.51
-1.69
-2.23
-3.14
-4.18
-4.94
-5.13
-4.82
-4.37
-4.25
-4.73
-5.70
-6.77
-7.45
-7.50
-7.02
-6.42
-6.18
-6.56
-7.44
-8.44
-9.03
-8.90
-8.01
-6.63
-5.07
-3.52
-1.98
-0.23
1.88
4.35
6.92
9.12
10.58
11.09
10.82
10.22
9.81
9.92
10.52
11.22
11.49
11.00
9.79
8.23
6.88
6.12
5.98
6.17
6.19
5.72
4.71
3.43
2.31
1.59
1.25
0.90
0.08
-1.47
-3.58
-5.63
-6.90
-6.77
-5.11
-2.39
0.67
3.25
4.90
5.64
5.85
5.96
6.20
6.40
6.21
5.37
3.97
2.45
1.49
1.56
2.71
4.53
6.20
7.11
6.95
5.89
4.46
3.11
2.03
1.01
-0.28
-2.06
-4.19
-6.28
-7.86
-8.62
-8.69
-8.50
-8.52
-9.06
-9.97
-10.75
-10.84
-9.85
-7.85
-5.32
-2.90
-1.05
0.16
0.99
1.89
3.10
4.51
5.75
6.27
5.85
4.62
3.05
1.74
0.99
0.77
0.63
0.12
-0.93
-2.33
-3.55
-4.10
-3.79
-2.84
-1.84
-1.38
-1.81
-3.05
-4.68
-6.19
-7.20
-7.66
-7.75
-7.79
-7.92
-8.03
-7.81
-6.92
-5.24
-2.94
-0.48
1.54
2.78
3.17
2.98
2.69
2.65
2.97
3.47
3.87
4.01
3.90
3.78
3.85
4.17
4.57
4.66
4.19
3.03
1.41
-0.22
-1.44
-2.03
-2.18
-2.36
-3.11
-4.64
-6.76
-8.84
-10.11
-9.99
-8.40
-5.70
-2.61
0.25
2.55
4.31
5.83
7.30
8.70
9.72
10.09
9.78
9.11
8.66
8.90
9.99
11.67
13.30
14.31
14.36
13.56
12.34
11.19
10.42
10.00
9.68
9.12
8.17
6.94
5.68
4.73
4.19
3.90
3.58
2.85
1.74
0.58
-0.10
0.25
1.74
4.00
6.31
7.97
8.60
8.35
7.76
7.38
7.49
7.99
8.43
8.40
7.71
6.61
5.61
5.16
5.45
6.24
6.97
7.08
6.30
4.83
3.18
1.93
1.37
1.41
1.64
1.48
0.63
-0.93
-2.91
-4.85
-6.45
-7.62
-8.50
-9.21
-9.77
-9.97
-9.48
-8.16
-6.09
-3.66
-1.53
-0.19
0.11
-0.45
-1.39
-2.17
-2.43
-2.17
-1.69
-1.40
-1.51
-1.94
-2.39
-2.45
-1.95
-1.04
-0.11
0.28
-0.09
-1.16
-2.51
-3.58
-4.11
-4.18
-4.24
-4.81
-6.10
-7.92
-9.69
-10.81
-10.91
-10.03
-8.62
-7.12
-5.88
-4.88
-3.87
-2.63
-1.08
0.56
1.86
2.48
2.32
1.66
0.99
0.85
1.52
2.85
4.43
5.64
6.10
5.76
4.92
4.05
3.51
3.33
3.26
2.97
2.27
1.30
0.45
0.06
0.27
0.85
1.24
1.01
-0.06
-1.76
-3.58
-5.01
-5.75
-5.84
-5.57
-5.23
-4.90
-4.41
-3.50
-1.96
0.12
2.34
4.23
5.33
5.58
5.21
4.69
4.49
4.83
5.57
6.34
6.77
6.74
6.41
6.21
6.49
7.38
8.66
9.84
10.49
10.44
9.88
9.27
9.02
9.32
9.94
10.41
10.32
9.54
8.33
7.15
6.41
6.19
6.18
5.92
4.99
3.45
1.76
0.61
0.56
1.68
3.44
5.01
5.69
5.28
4.16
3.11
2.73
3.20
4.19
4.99
5.06
4.25
2.90
1.61
0.88
0.84
1.21
1.49
1.31
0.62
-0.28
-1.02
-1.29
-1.08
-0.69
-0.48
-0.79
-1.66
-2.89
-4.17
-5.27
-6.19
-7.20
-8.64
-10.71
-13.22
-15.61
-17.14
-17.30
-16.01
-13.69
-11.22
-9.33
-8.47
-8.56
-9.06
-9.41
-9.26
-8.66
-8.00
-7.72
-7.96
-8.47
-8.76
-8.33
-6.98
-4.99
-2.87
-1.21
-0.25
0.10
0.21
0.46
0.89
1.21
0.92
-0.29
-2.34
-4.70
-6.58
-7.46
-7.26
-6.47
-5.99
-6.46
-8.09
-10.40
-12.47
-13.40
-12.78
-10.85
-8.34
-6.05
-4.46
-3.55
-2.94
-2.16
-0.95
0.59
2.17
3.41
4.20
4.66
5.04
5.60
6.37
7.08
7.39
7.03
6.07
4.84
3.86
3.45
3.65
4.11
4.24
3.67
2.28
0.40
-1.40
-2.66
-3.22
-3.29
-3.31
-3.73
-4.72
-6.13
-7.64
-8.85
-9.56
-9.84
-9.83
-9.75
-9.53
-8.94
-7.66
-5.52
-2.72
0.19
2.53
3.80
3.98
3.51
3.16
3.52
4.75
6.53
8.15
9.01
8.88
8.02
7.01
6.35
6.20
6.28
6.14
5.40
4.11
2.66
1.56
1.17
1.49
2.13
2.64
2.65
2.14
1.40
0.79
0.59
0.75
0.95
0.71
-0.28
-1.89
-3.61
-4.66
-4.42
-2.73
0.02
2.94
5.18
6.23
6.20
5.66
5.26
5.29
5.56
5.58
4.92
3.63
2.21
1.38
1.65
3.00
4.84
6.43
7.16
6.98
6.34
5.86
6.03
6.84
7.89
8.64
8.75
8.32
7.79
7.69
8.34
9.63
11.15
12.25
12.54
11.93
10.66
9.21
7.96
7.15
6.72
6.51
6.35
6.21
6.19
6.44
7.06
8.03
9.08
9.89
10.08
9.56
8.50
7.30
6.42
6.03
5.92
5.63
4.77
3.31
1.62
0.34
-0.10
0.33
1.17
1.65
1.33
0.13
-1.55
-3.10
-4.14
-4.68
-5.12
-6.00
-7.60
-9.81
-12.09
-13.86
-14.64
-14.33
-13.27
-11.92
-10.76
-9.88
-9.15
-8.23
-6.93
-5.35
-3.94
-3.24
-3.56
-4.76
-6.28
-7.40
-7.67
-7.05
-5.96
-5.12
-4.96
-5.61
-6.72
-7.70
-8.10
-7.82
-7.17
-6.64
-6.56
-6.96
-7.50
-7.81
-7.64
-7.07
-6.54
-6.49
-7.28
-8.80
-10.62
-12.12
-12.77
-12.42
-11.32
-10.03
-9.05
-8.56
-8.35
-7.93
-6.88
-5.07
-2.80
-0.72
0.70
1.25
1.17
0.98
1.09
1.63
2.30
2.63
2.33
1.42
0.30
-0.58
-0.87
-0.61
-0.20
-0.06
-0.52
-1.52
-2.68
-3.58
-3.89
-3.63
-3.16
-2.87
-2.98
-3.33
-3.47
-2.82
-1.12
1.55
4.66
7.46
9.36
10.10
9.83
8.99
8.02
7.18
6.45
5.73
4.96
4.28
4.02
4.42
5.57
7.25
8.95
10.19
10.61
10.27
9.56
9.06
9.26
10.29
11.90
13.57
14.81
15.47
15.71
15.92
16.39
17.11
17.74
17.74
16.80
14.95
12.62
10.41
8.81
7.93
7.55
7.25
6.74
5.96
5.13
4.53
4.36
4.51
4.57
4.11
2.77
0.63
-1.87
-4.13
-5.65
-6.34
-6.58
-6.94
-7.83
-9.24
-10.70
-11.52
-11.25
-9.89
-7.90
-6.10
-5.09
-5.09
-5.89
-6.95
-7.88
-8.56
-9.20
-10.11
-11.34
-12.60
-13.31
-12.98
-11.42
-8.89
-5.98
-3.22
-0.96
0.84
2.40
3.83
4.99
5.51
4.96
3.20
0.45
-2.64
-5.33
-7.02
-7.53
-7.16
-6.45
-6.08
-6.40
-7.44
-8.85
-10.09
-10.79
-10.88
-10.59
-10.32
-10.32
-10.61
-11.02
-11.33
-11.46
-11.48
-11.62
-11.88
-12.11
-11.90
-10.82
-8.66
-5.64
-2.32
0.49
2.18
2.56
1.95
1.02
0.51
0.83
1.95
3.46
4.70
5.30
5.23
4.80
4.51
4.61
4.99
5.18
4.66
3.24
1.14
-1.04
-2.77
-3.81
-4.36
-5.07
-6.47
-8.79
-11.70
-14.47
-16.32
-16.75
-15.76
-13.80
-11.42
-9.05
-6.83
-4.68
-2.41
0.02
2.48
4.70
6.34
7.31
7.69
7.81
8.11
8.83
9.94
11.12
12.00
12.35
12.25
12.08
12.23
12.92
13.97
14.87
15.13
14.42
12.82
10.77
8.73
6.99
5.47
3.80
1.63
-1.12
-4.07
-6.52
-7.71
-7.23
-5.24
-2.38
0.44
2.54
3.70
4.15
4.40
4.75
5.14
5.11
4.24
2.47
0.28
-1.49
-2.12
-1.34
0.39
2.08
2.80
2.08
0.21
-1.99
-3.61
-4.17
-3.83
-3.29
-3.29
-4.14
-5.60
-7.03
-7.79
-7.58
-6.63
-5.39
-4.34
-3.55
-2.75
-1.51
0.49
3.18
6.08
8.52
9.98
10.36
9.98
9.47
9.42
10.11
11.43
12.89
13.98
14.38
14.07
13.38
12.65
12.09
11.62
10.91
9.62
7.63
5.10
2.37
-0.24
-2.60
-4.92
-7.48
-10.60
-14.26
-18.08
-21.46
-23.79
-24.80
-24.60
-23.66
-22.51
-21.43
-20.39
-19.07
-17.19
-14.68
-11.82
-9.19
-7.29
-6.33
-6.09
-5.98
-5.45
-4.22
-2.42
-0.50
1.06
2.03
2.51
2.85
3.43
4.45
5.86
7.40
8.70
9.55
9.85
9.60
8.82
7.38
5.03
1.53
-3.13
-8.56
-13.95
-18.30
-20.74
-20.79
-18.51
-14.50
-9.60
-4.65
-0.29
3.07
5.27
6.26
6.13
5.07
3.42
1.66
0.32
-0.16
0.43
2.02
4.25
6.59
8.48
9.60
9.89
9.61
9.17
8.89
8.83
8.80
8.50
7.71
6.48
5.12
3.92
3.04
2.36
1.43
-0.09
-2.39
-5.19
-7.90
-9.89
-10.80
-10.71
-10.09
-9.49
-9.20
-9.12
-8.86
-7.94
-6.18
-3.81
-1.28
0.89
2.51
3.71
4.86
6.29
8.10
10.06
11.80
13.05
13.77
14.19
14.72
15.58
16.74
17.96
18.76
18.85
18.15
16.89
15.47
14.21
13.19
12.18
10.83
8.88
6.37
3.65
1.17
-0.72
-1.89
-2.49
-2.71
-2.71
-2.44
-1.73
-0.48
1.26
3.16
4.75
5.58
5.45
4.47
3.03
1.59
0.46
-0.23
-0.56
-0.79
-1.03
-1.34
-1.60
-1.68
-1.58
-1.46
-1.65
-2.46
-3.99
-6.09
-8.26
-9.98
-10.85
-10.80
-10.22
-9.70
-9.86
-11.03
-13.16
-15.85
-18.48
-20.48
-21.47
-21.31
-20.05
-17.91
-15.23
-12.36
-9.73
-7.77
-6.75
-6.82
-7.76
-9.08
-10.10
-10.12
-8.84
-6.43
-3.52
-0.93
0.82
1.72
2.27
3.07
4.49
6.34
7.95
8.65
8.04
6.38
4.43
3.10
3.03
4.31
6.50
8.83
10.61
11.39
11.12
10.02
8.32
6.23
3.83
1.16
-1.57
-3.98
-5.53
-5.68
-4.19
-1.23
2.56
6.29
9.13
10.57
10.55
9.40
7.66
5.82
4.11
2.54
0.96
-0.72
-2.47
-4.09
-5.38
-6.26
-6.85
-7.37
-7.96
-8.51
-8.77
-8.40
-7.35
-5.88
-4.51
-3.86
-4.24
-5.62
-7.61
-9.65
-11.28
-12.23
-12.45
-11.96
-10.71
-8.62
-5.59
-1.69
2.84
7.54
11.90
15.52
18.14
19.77
20.60
20.83
20.67
20.20
19.40
18.24
16.78
15.19
13.76
12.76
12.32
12.33
12.43
12.13
11.07
9.10
6.42
3.44
0.58
-1.90
-4.02
-5.99
-8.02
-10.20
-12.38
-14.33
-15.79
-16.58
-16.72
-16.27
-15.34
-13.95
-12.09
-9.77
-7.07
-4.24
-1.71
0.11
0.99
0.97
0.39
-0.24
-0.51
-0.23
0.49
1.30
1.86
1.96
1.66
1.15
0.63
0.12
-0.53
-1.56
-3.07
-4.94
-6.75
-8.07
-8.57
-8.30
-7.65
-7.19
-7.41
-8.36
-9.70
-10.83
-11.18
-10.52
-9.07
-7.30
-5.69
-4.42
-3.37
-2.28
-0.97
0.47
1.75
2.48
2.50
1.96
1.30
0.96
1.20
1.90
2.66
3.06
2.91
2.33
1.67
1.29
1.36
1.78
2.18
2.22
1.67
0.60
-0.69
-1.86
-2.72
-3.30
-3.92
-4.93
-6.51
-8.49
-10.34
-11.35
-11.02
-9.27
-6.50
-3.52
-0.97
0.75
1.75
2.46
3.23
4.16
5.02
5.45
5.26
4.63
4.06
4.05
4.89
6.48
8.29
9.78
10.51
10.40
9.72
8.83
8.06
7.51
7.02
6.34
5.30
3.94
2.51
1.33
0.56
0.16
-0.15
-0.73
-1.69
-2.84
-3.68
-3.64
-2.44
-0.25
2.37
4.73
6.40
7.35
7.94
8.55
9.44
10.49
11.30
11.55
11.15
10.42
9.94
10.23
11.49
13.42
15.38
16.67
16.90
16.14
14.88
13.75
13.17
13.17
13.41
13.36
12.63
11.09
8.91
6.41
3.84
1.30
-1.20
-3.61
-5.70
-7.07
-7.29
-6.19
-3.91
-0.96
1.94
4.21
5.51
5.90
5.69
5.20
4.65
3.98
3.04
1.71
0.04
-1.69
-3.16
-4.09
-4.48
-4.55
-4.65
-5.15
-6.19
-7.70
-9.41
-10.96
-12.13
-12.91
-13.53
-14.32
-15.53
-17.17
-18.98
-20.55
-21.44
-21.40
-20.51
-18.96
-17.10
-15.10
-13.01
-10.73
-8.25
-5.76
-3.67
-2.45
-2.40
-3.40
-4.96
-6.36
-6.98
-6.59
-5.35
-3.80
-2.45
-1.64
-1.41
-1.57
-1.94
-2.44
-3.15
-4.18
-5.50
-6.98
-8.31
-9.33
-10.03
-10.65
-11.58
-13.04
-14.93
-16.78
-17.86
-17.55
-15.64
-12.44
-8.70
-5.22
-2.57
-0.87
0.12
0.77
1.34
1.81
2.07
1.93
1.50
1.09
1.12
1.87
3.27
4.87
6.00
6.19
5.34
3.84
2.38
1.52
1.44
1.87
2.15
1.70
0.20
-2.21
-5.08
-7.86
-10.12
-11.61
-12.31
-12.20
-11.26
-9.45
-6.82
-3.53
-0.03
3.16
5.57
6.83
6.92
6.08
4.78
3.52
2.65
2.30
2.30
2.45
2.55
2.64
2.87
3.36
4.11
4.92
5.34
5.07
3.95
2.17
0.11
-1.91
-3.84
-5.89
-8.39
-11.41
-14.53
-16.91
-17.63
-16.04
-12.22
-6.87
-1.06
4.16
8.18
10.90
12.60
13.62
14.18
14.28
13.84
12.89
11.68
10.62
10.13
10.36
11.14
12.05
12.56
12.36
11.40
9.94
8.42
7.16
6.30
5.69
4.96
3.74
1.79
-0.80
-3.67
-6.19
-7.75
-7.92
-6.64
-4.21
-1.15
2.06
5.04
7.65
9.77
11.23
11.81
11.37
9.99
8.10
6.38
5.46
5.68
6.96
8.77
10.52
11.66
12.02
11.78
11.25
10.71
10.24
9.68
8.74
7.21
5.09
2.53
-0.18
-2.80
-5.23
-7.40
-9.26
-10.56
-10.91
-9.97
-7.59
-4.13
-0.35
2.81
4.66
5.03
4.27
3.12
2.19
1.79
1.81
1.90
1.85
1.69
1.68
2.07
2.86
3.65
3.80
2.76
0.40
-2.89
-6.36
-9.24
-11.10
-12.01
-12.51
-13.22
-14.65
-16.84
-19.44
-21.81
-23.26
-23.33
-21.83
-18.88
-14.77
-9.88
-4.55
0.87
6.04
10.66
14.50
17.35
19.18
20.07
20.26
20.08
19.82
19.66
19.55
19.30
18.68
17.56
16.00
14.23
12.51
10.97
9.48
7.78
5.56
2.81
-0.17
-2.86
-4.80
-5.82
-6.20
-6.52
-7.31
-8.80
-10.84
-12.95
-14.61
-15.39
-15.05
-13.58
-11.04
-7.61
-3.57
0.71
4.76
8.17
10.60
11.96
12.39
12.21
11.84
11.67
12.02
13.01
14.54
16.39
18.19
19.71
20.81
21.53
21.99
22.23
22.18
21.68
20.65
19.19
17.60
16.26
15.42
15.06
14.91
14.56
13.77
12.50
10.98
9.55
8.38
7.39
6.24
4.52
2.06
-0.94
-3.88
-5.97
-6.54
-5.30
-2.54
1.08
4.69
7.67
9.70
10.84
11.32
11.33
10.89
9.93
8.50
6.84
5.44
4.88
5.46
7.11
9.31
11.26
12.35
12.33
11.47
10.37
9.63
9.48
9.77
10.01
9.73
8.74
7.18
5.36
3.64
2.16
0.79
-0.67
-2.46
-4.66
-7.22
-10.05
-13.03
-16.11
-19.22
-22.15
-24.51
-25.80
-25.56
-23.58
-20.14
-15.93
-11.82
-8.67
-6.92
-6.53
-7.04
-7.82
-8.31
-8.24
-7.62
-6.57
-5.21
-3.58
-1.61
0.58
2.80
4.66
5.72
5.77
4.77
3.04
0.99
-0.99
-2.73
-4.39
-6.25
-8.59
-11.38
-14.29
-16.82
-18.58
-19.52
-19.98
-20.43
-21.34
-22.68
-24.03
-24.62
-23.70
-20.99
-16.69
-11.51
-6.31
-1.77
1.83
4.60
6.80
8.70
10.35
11.57
12.22
12.20
11.72
11.10
10.68
10.60
10.73
10.77
10.37
9.43
8.09
6.75
5.89
5.76
6.35
7.33
8.21
8.60
8.34
7.49
6.34
5.12
3.87
2.51
0.85
-1.26
-3.79
-6.56
-9.36
-11.98
-14.25
-16.03
-17.10
-17.27
-16.33
-14.25
-11.21
-7.60
-3.99
-0.92
1.21
2.34
2.74
2.85
3.17
3.95
5.16
6.54
7.71
8.48
8.83
8.99
9.25
9.73
10.37
10.95
11.29
11.35
11.34
11.56
12.21
13.29
14.60
15.78
16.52
16.66
16.30
15.72
15.19
14.84
14.54
13.90
12.50
10.13
6.96
3.56
0.71
-0.92
-1.06
0.09
1.91
3.77
5.15
5.90
6.12
5.97
5.50
4.63
3.25
1.38
-0.65
-2.32
-3.12
-2.80
-1.53
0.09
1.38
1.78
1.14
-0.26
-1.92
-3.35
-4.36
-5.08
-5.75
-6.58
-7.56
-8.48
-9.09
-9.25
-9.11
-8.93
-9.10
-9.76
-10.88
-12.20
-13.42
-14.42
-15.29
-16.21
-17.29
-18.39
-19.11
-18.99
-17.79
-15.63
-13.00
-10.53
-8.73
-7.79
-7.51
-7.48
-7.31
-6.76
-5.89
-4.92
-4.13
-3.70
-3.56
-3.51
-3.25
-2.58
-1.55
-0.38
0.48
0.78
0.40
-0.47
-1.50
-2.46
-3.33
-4.28
-5.56
-7.24
-9.14
-10.86
-12.08
-12.68
-12.82
-12.88
-13.18
-13.85
-14.73
-15.43
-15.59
-14.90
-13.32
-11.04
-8.36
-5.64
-3.10
-0.87
1.11
2.93
4.66
6.29
7.61
8.46
8.75
8.56
8.13
7.70
7.40
7.17
6.87
6.41
5.85
5.37
5.14
5.22
5.50
5.70
5.64
5.24
4.64
4.09
3.84
4.02
4.54
5.18
5.68
5.89
5.83
5.64
5.51
5.48
5.44
5.15
4.37
3.10
1.60
0.31
-0.32
-0.11
0.76
1.89
2.85
3.42
3.61
3.66
3.73
3.82
3.76
3.23
2.09
0.42
-1.43
-2.99
-3.91
-4.12
-3.85
-3.56
-3.62
-4.20
-5.19
-6.28
-7.14
-7.55
-7.52
-7.21
-6.87
-6.66
-6.62
-6.66
-6.58
-6.25
-5.74
-5.24
-5.06
-5.40
-6.34
-7.72
-9.26
-10.58
-11.32
-11.27
-10.29
-8.45
-5.98
-3.22
-0.58
1.53
2.79
3.05
2.30
0.78
-1.19
-3.23
-5.01
-6.34
-7.22
-7.75
-8.09
-8.33
-8.44
-8.41
-8.23
-7.98
-7.83
-7.92
-8.25
-8.66
-8.93
-8.83
-8.33
-7.58
-6.90
-6.65
-6.97
-7.82
-8.87
-9.74
-10.11
-9.95
-9.49
-9.16
-9.30
-9.99
-10.98
-11.78
-11.88
-11.02
-9.29
-6.99
-4.60
-2.39
-0.44
1.37
3.21
5.09
6.85
8.21
8.98
9.25
9.33
9.65
10.46
11.71
13.10
14.13
14.51
14.18
13.40
12.52
11.77
11.12
10.35
9.22
7.63
5.76
3.97
2.61
1.84
1.57
1.47
1.18
0.41
-0.86
-2.41
-3.89
-5.03
-5.81
-6.45
-7.35
-8.82
-10.88
-13.24
-15.37
-16.82
-17.36
-17.07
-16.32
-15.42
-14.58
-13.72
-12.64
-11.19
-9.38
-7.45
-5.77
-4.56
-3.84
-3.37
-2.80
-1.88
-0.60
0.84
2.09
2.93
3.38
3.73
4.33
5.44
6.99
8.66
9.97
10.66
10.81
10.79
11.08
11.90
13.10
14.18
14.53
13.84
12.21
10.17
8.32
7.08
6.41
5.90
5.03
3.48
1.32
-0.99
-2.87
-3.86
-3.83
-2.99
-1.76
-0.57
0.40
1.19
2.02
3.09
4.37
5.64
6.48
6.52
5.69
4.22
2.58
1.21
0.34
-0.08
-0.38
-0.86
-1.68
-2.82
-4.13
-5.52
-7.00
-8.61
-10.31
-11.80
-12.60
-12.23
-10.44
-7.42
-3.71
-0.06
2.93
4.93
6.06
6.65
7.05
7.36
7.29
6.33
3.96
0.01
-5.19
-10.85
-15.96
-19.73
-21.88
-22.65
-22.77
-22.90
-23.37
-23.91
-23.75
-21.97
-17.93
-11.51
-3.13
6.51
16.70
26.81
36.26
44.45
50.82
55.04
57.33
58.44
59.51
61.51
64.67
68.42
71.47
72.44
70.41
65.18
57.28
47.58
37.09
26.59
16.68
7.83
0.29
-5.71
-10.08
-12.88
-14.32
-14.85
-15.11
-15.84
-17.73
-21.12
-25.90
-31.39
-36.58
-40.47
-42.42
-42.46
-41.14
-39.37
-37.94
-37.25
-37.21
-37.39
-37.27
-36.49
-35.01
-32.94
-30.44
-27.62
-24.47
-20.97
-17.20
-13.35
-9.71
-6.48
-3.69
-1.18
1.35
4.12
7.13
10.15
12.77
14.59
15.39
15.22
14.32
12.98
11.45
9.78
7.93
5.78
3.26
0.46
-2.48
-5.38
-8.20
-11.00
-13.88
-16.83
-19.59
-21.71
-22.73
-22.39
-20.76
-18.19
-15.22
-12.26
-9.49
-6.86
-4.25
-1.59
1.01
3.30
5.05
6.15
6.75
7.14
7.64
8.46
9.58
10.73
11.57
11.81
11.42
10.66
9.93
9.52
9.43
9.38
8.89
7.68
5.79
3.59
1.58
0.08
-0.90
-1.62
-2.50
-3.83
-5.66
-7.82
-10.03
-12.00
-13.53
-14.47
-14.73
-14.22
-12.85
-10.68
-7.90
-4.85
-1.98
0.30
1.72
2.25
2.13
1.75
1.52
1.67
2.22
2.97
3.66
4.13
4.38
4.54
4.79
5.25
5.89
6.61
7.21
7.56
7.57
7.23
6.55
5.52
4.10
2.25
0.04
-2.31
-4.45
-6.01
-6.81
-6.89
-6.57
-6.34
-6.60
-7.57
-9.13
-10.86
-12.23
-12.75
-12.18
-10.58
-8.27
-5.70
-3.24
-1.12
0.63
2.06
3.23
4.15
4.74
5.00
4.95
4.75
4.60
4.64
4.92
5.35
5.77
6.09
6.31
6.55
6.94
7.56
8.36
9.10
9.57
9.59
9.21
8.64
8.16
7.96
8.02
8.13
7.99
7.47
6.64
5.71
4.91
4.30
3.69
2.81
1.37
-0.70
-3.20
-5.77
-7.95
-9.37
-9.81
-9.25
-7.78
-5.63
-3.05
-0.30
2.39
4.84
6.90
8.43
9.29
9.42
8.88
7.95
7.07
6.65
6.89
7.67
8.56
9.08
8.92
8.13
7.07
6.17
5.68
5.58
5.49
5.04
3.99
2.37
0.46
-1.45
-3.19
-4.77
-6.34
-7.93
-9.46
-10.73
-11.52
-11.85
-11.96
-12.32
-13.33
-15.15
-17.50
-19.72
-21.07
-20.96
-19.27
-16.34
-12.83
-9.36
-6.32
-3.76
-1.50
0.70
2.91
5.02
6.74
7.85
8.28
8.17
7.80
7.44
7.22
7.09
6.96
6.79
6.66
6.80
7.36
8.37
9.61
10.71
11.33
11.28
10.70
9.91
9.24
8.94
8.99
9.20
9.27
8.96
8.12
6.67
4.68
2.31
-0.08
-1.97
-2.83
-2.23
-0.10
3.25
7.18
10.97
14.06
16.19
17.50
18.40
19.33
20.64
22.41
24.48
26.52
28.12
29.03
29.18
28.75
28.08
27.52
27.25
27.24
27.27
27.07
26.53
25.71
24.82
24.13
23.67
23.26
22.52
21.06
18.74
15.71
12.34
9.07
6.13
3.51
0.99
-1.67
-4.56
-7.65
-10.76
-13.82
-16.83
-19.86
-22.91
-25.78
-28.15
-29.64
-30.04
-29.46
-28.31
-27.12
-26.31
-26.02
-26.11
-26.22
-26.02
-25.32
-24.15
-22.66
-21.06
-19.46
-17.91
-16.35
-14.78
-13.24
-11.90
-10.93
-10.46
-10.45
-10.74
-11.06
-11.17
-10.97
-10.50
-9.86
-9.12
-8.14
-6.71
-4.56
-1.56
2.09
5.89
9.18
11.28
11.89
11.16
9.78
8.69
8.79
10.51
13.63
17.32
20.40
21.82
20.99
18.02
13.58
8.64
4.02
0.19
-2.78
-5.03
-6.68
-7.73
-8.11
-7.83
-7.13
-6.55
-6.62
-7.66
-9.56
-11.79
-13.75
-15.02
-15.63
-15.96
-16.51
-17.57
-19.13
-20.87
-22.36
-23.37
-23.89
-24.11
-24.27
-24.39
-24.31
-23.72
-22.34
-20.12
-17.28
-14.26
-11.46
-9.08
-7.05
-5.15
-3.20
-1.23
0.53
1.75
2.27
2.19
1.89
1.81
2.27
3.31
4.68
5.98
6.92
7.39
7.53
7.61
7.88
8.39
8.97
9.38
9.32
8.65
7.45
5.90
4.24
2.61
0.95
-0.89
-3.04
-5.44
-7.83
-9.80
-10.97
-11.14
-10.34
-8.92
-7.25
-5.68
-4.33
-3.13
-1.93
-0.61
0.75
1.95
2.75
3.06
2.97
2.77
2.73
2.98
3.42
3.78
3.75
3.17
2.04
0.60
-0.88
-2.23
-3.42
-4.57
-5.76
-6.93
-7.93
-8.57
-8.80
-8.74
-8.68
-8.89
-9.43
-10.11
-10.53
-10.24
-8.98
-6.82
-4.10
-1.30
1.22
3.31
5.05
6.65
8.32
10.14
12.02
13.82
15.31
16.40
17.08
17.43
17.60
17.66
17.61
17.35
16.75
15.76
14.47
13.07
11.82
10.91
10.32
9.84
9.20
8.20
6.77
5.02
3.10
1.07
-1.15
-3.72
-6.72
-10.03
-13.30
-16.05
-17.85
-18.53
-18.21
-17.21
-15.97
-14.75
-13.60
-12.42
-11.01
-9.32
-7.43
-5.58
-3.99
-2.76
-1.74
-0.70
0.57
2.09
3.67
4.95
5.66
5.72
5.31
4.77
4.39
4.27
4.27
4.15
3.71
2.93
1.96
1.03
0.34
-0.09
-0.37
-0.73
-1.40
-2.47
-3.89
-5.50
-7.06
-8.37
-9.32
-9.83
-9.85
-9.30
-8.11
-6.22
-3.76
-0.96
1.81
4.14
5.81
6.75
7.12
7.20
7.27
7.49
7.85
8.23
8.48
8.57
8.57
8.66
9.03
9.70
10.55
11.36
11.88
11.98
11.69
11.10
10.32
9.36
8.17
6.65
4.84
2.91
1.17
-0.10
-0.79
-1.00
-1.04
-1.31
-2.02
-3.14
-4.35
-5.19
-5.24
-4.33
-2.54
-0.20
2.32
4.69
6.74
8.43
9.80
10.84
11.47
11.57
11.05
9.96
8.51
7.04
5.92
5.37
5.44
5.92
6.59
7.28
7.99
8.84
9.94
11.24
12.52
13.44
13.72
13.28
12.26
10.93
9.55
8.17
6.69
4.88
2.56
-0.29
-3.52
-6.89
-10.17
-13.18
-15.88
-18.27
-20.39
-22.19
-23.67
-24.83
-25.77
-26.68
-27.70
-28.88
-29.98
-30.57
-30.19
-28.52
-25.62
-21.89
-17.94
-14.37
-11.50
-9.31
-7.52
-5.78
-3.90
-1.86
0.20
2.15
3.96
5.77
7.76
10.12
12.94
16.16
19.58
22.83
25.41
26.77
26.42
24.12
20.05
14.82
9.40
4.75
1.62
0.33
0.72
2.33
4.58
6.92
8.95
10.41
11.14
11.20
10.76
10.13
9.63
9.45
9.54
9.67
9.53
8.90
7.83
6.51
5.25
4.25
3.54
2.99
2.42
1.70
0.79
-0.23
-1.30
-2.45
-3.87
-5.85
-8.78
-12.85
-17.97
-23.62
-28.92
-32.89
-34.78
-34.31
-31.81
-28.05
-23.91
-20.13
-17.09
-14.81
-13.13
-11.85
-10.81
-9.88
-8.86
-7.52
-5.63
-3.09
0.00
3.36
6.57
9.24
11.09
11.94
11.78
10.70
8.96
6.94
5.05
3.52
2.31
1.09
-0.60
-3.02
-6.07
-9.20
-11.64
-12.75
-12.22
-10.15
-6.92
-3.04
1.03
4.86
8.05
10.22
11.13
10.81
9.63
8.21
7.24
7.28
8.63
11.29
15.07
19.69
24.87
30.33
35.71
40.46
43.86
45.06
43.43
38.81
31.83
23.77
16.21
10.35
6.58
4.33
2.49
0.08
-3.26
-7.07
-10.56
-13.20
-15.06
-16.86
-19.40
-23.06
-27.43
-31.53
-34.35
-35.36
-34.80
-33.54
-32.50
-32.22
-32.57
-33.05
-33.20
-33.03
-33.08
-33.95
-35.80
-37.94
-39.06
-37.81
-33.52
-26.59
-18.23
-9.87
-2.59
3.27
7.86
11.59
14.78
17.63
20.31
23.00
25.81
28.57
30.78
31.70
30.62
27.19
21.57
14.36
6.38
-1.61
-9.01
-15.43
-20.58
-24.17
-25.95
-25.69
-23.33
-19.04
-13.25
-6.51
0.60
7.64
14.37
20.70
26.56
31.78
36.11
39.22
40.80
40.78
39.29
36.67
33.38
29.85
26.39
23.22
20.51
18.49
17.48
17.88
19.99
23.92
29.49
36.28
43.73
51.17
57.93
63.33
66.74
67.72
66.15
62.36
57.05
51.06
45.07
39.39
34.00
28.71
23.51
18.59
14.34
11.03
8.61
6.63
4.38
1.21
-3.24
-8.92
-15.45
-22.21
-28.51
-33.67
-37.10
-38.41
-37.56
-34.87
-30.98
-26.57
-22.20
-18.08
-14.10
-10.06
-5.78
-1.35
2.99
6.81
9.75
11.52
12.00
11.22
9.37
6.68
3.43
-0.18
-4.02
-8.05
-12.30
-16.75
-21.24
-25.47
-29.04
-31.55
-32.77
-32.73
-31.68
-30.04
-28.14
-26.20
-24.21
-22.15
-20.08
-18.22
-16.91
-16.39
-16.67
-17.48
-18.42
-19.13
-19.36
-19.02
-18.08
-16.50
-14.22
-11.28
-7.87
-4.34
-1.12
1.42
3.11
3.98
4.19
3.96
3.38
2.49
1.22
-0.50
-2.69
-5.26
-7.99
-10.65
-12.97
-14.75
-15.88
-16.31
-16.08
-15.30
-14.14
-12.80
-11.49
-10.34
-9.32
-8.28
-7.01
-5.38
-3.41
-1.33
0.58
2.10
3.20
4.07
4.99
6.14
7.46
8.65
9.31
9.13
8.02
6.17
3.88
1.41
-1.14
-3.75
-6.42
-9.05
-11.33
-12.96
-13.70
-13.49
-12.54
-11.13
-9.54
-7.88
-6.09
-4.06
-1.71
0.94
3.69
6.27
8.40
9.89
10.73
11.07
11.17
11.38
12.01
13.25
15.16
17.63
20.37
23.03
25.17
26.35
26.17
24.30
20.53
14.93
7.90
0.13
-7.37
-13.61
-17.78
-19.56
-19.12
-17.13
-14.40
-11.73
-9.63
-8.29
-7.67
-7.68
-8.24
-9.36
-10.98
-12.94
-14.87
-16.34
-16.94
-16.44
-14.90
-12.56
-9.78
-6.87
-4.03
-1.34
1.21
3.63
5.87
7.88
9.62
11.12
12.49
13.90
15.50
17.36
19.41
21.42
23.11
24.21
24.56
24.16
23.10
21.52
19.59
17.44
15.20
13.00
10.96
9.16
7.63
6.37
5.29
4.35
3.48
2.61
1.75
0.83
-0.21
-1.44
-2.90
-4.55
-6.26
-7.82
-8.96
-9.53
-9.53
-9.10
-8.46
-7.81
-7.21
-6.62
-5.95
-5.19
-4.40
-3.70
-3.22
-2.96
-2.76
-2.42
-1.77
-0.76
0.53
1.90
3.18
4.25
5.14
5.89
6.63
7.41
8.24
9.03
9.62
9.89
9.79
9.39
8.85
8.30
7.77
7.11
6.11
4.56
2.54
0.36
-1.45
-2.42
-2.39
-1.56
-0.39
0.63
1.27
1.64
2.01
2.63
3.51
4.43
4.99
4.93
4.16
2.82
1.18
-0.54
-2.23
-3.84
-5.42
-6.96
-8.44
-9.85
-11.18
-12.51
-13.94
-15.52
-17.29
-19.19
-21.10
-22.84
-24.32
-25.48
-26.40
-27.20
-27.94
-28.57
-28.89
-28.63
-27.54
-25.52
-22.63
-19.02
-14.97
-10.70
-6.43
-2.30
1.60
5.27
8.75
12.09
15.25
18.06
20.22
21.47
21.69
21.06
20.01
19.07
18.65
18.85
19.44
19.96
19.97
19.20
17.68
15.61
13.26
10.90
8.63
6.44
4.26
2.00
-0.36
-2.78
-5.17
-7.49
-9.72
-11.92
-14.06
-16.06
-17.70
-18.73
-18.99
-18.55
-17.73
-16.90
-16.42
-16.44
-16.86
-17.44
-17.98
-18.31
-18.41
-18.23
-17.71
-16.71
-15.11
-12.97
-10.51
-8.11
-6.11
-4.73
-3.99
-3.68
-3.55
-3.42
-3.23
-3.00
-2.83
-2.70
-2.57
-2.37
-2.07
-1.78
-1.62
-1.68
-1.89
-2.03
-1.78
-0.92
0.59
2.58
4.70
6.56
7.90
8.66
8.95
8.99
8.94
8.86
8.64
8.10
7.09
5.62
3.86
2.11
0.71
-0.13
-0.39
-0.21
0.11
0.29
0.14
-0.38
-1.14
-1.96
-2.62
-2.97
-2.97
-2.68
-2.30
-2.08
-2.26
-3.00
-4.25
-5.78
-7.10
-7.65
-6.95
-4.88
-1.68
2.04
5.59
8.49
10.66
12.32
13.86
15.50
17.19
18.68
19.62
19.93
19.74
19.39
19.21
19.29
19.51
19.55
19.14
18.20
16.87
15.44
14.20
13.30
12.75
12.32
11.74
10.73
9.14
7.06
4.74
2.57
0.89
-0.08
-0.31
0.11
1.03
2.22
3.50
4.62
5.36
5.53
5.10
4.28
3.51
3.26
3.92
5.60
8.14
11.17
14.34
17.49
20.59
23.74
26.93
29.99
32.59
34.28
34.67
33.55
30.94
27.03
22.13
16.50
10.44
4.21
-1.85
-7.40
-12.12
-15.88
-18.74
-20.96
-22.80
-24.43
-25.83
-26.77
-26.98
-26.30
-24.76
-22.59
-20.18
-17.93
-16.13
-14.87
-14.13
-13.77
-13.67
-13.76
-14.02
-14.46
-14.99
-15.48
-15.70
-15.46
-14.66
-13.34
-11.74
-10.17
-8.89
-7.99
-7.34
-6.71
-5.82
-4.57
-3.08
-1.65
-0.67
-0.34
-0.66
-1.42
-2.26
-2.91
-3.18
-3.03
-2.46
-1.48
-0.09
1.74
3.93
6.33
8.72
10.76
12.17
12.71
12.28
10.94
8.90
6.50
4.04
1.75
-0.29
-2.10
-3.73
-5.21
-6.51
-7.54
-8.22
-8.45
-8.19
-7.39
-6.10
-4.48
-2.81
-1.55
-1.25
-2.41
-5.26
-9.56
-14.59
-19.31
-22.72
-24.12
-23.42
-21.10
-17.98
-14.87
-12.27
-10.28
-8.63
-6.98
-5.10
-3.05
-1.10
0.40
1.25
1.46
1.31
1.19
1.44
2.19
3.31
4.52
5.52
6.09
6.23
6.04
5.61
5.00
4.26
3.52
3.04
3.22
4.36
6.51
9.33
12.07
13.86
14.04
12.47
9.58
6.24
3.35
1.54
0.98
1.37
2.25
3.25
4.15
4.92
5.53
5.89
5.80
5.01
3.47
1.33
-1.02
-3.08
-4.50
-5.13
-5.06
-4.57
-3.89
-3.17
-2.38
-1.42
-0.21
1.26
2.86
4.39
5.69
6.68
7.39
7.91
8.30
8.54
8.51
8.14
7.45
6.70
6.28
6.60
7.85
9.95
12.49
14.91
16.75
17.78
18.04
17.78
17.21
16.45
15.49
14.23
12.70
11.02
9.41
8.10
7.20
6.66
6.27
5.79
5.07
4.09
2.96
1.81
0.74
-0.24
-1.23
-2.36
-3.66
-5.12
-6.64
-8.16
-9.67
-11.26
-13.00
-14.85
-16.61
-17.88
-18.30
-17.62
-15.91
-13.58
-11.23
-9.43
-8.50
-8.37
-8.66
-8.87
-8.63
-7.87
-6.80
-5.73
-4.92
-4.40
-4.02
-3.60
-3.07
-2.51
-2.16
-2.20
-2.64
-3.37
-4.20
-4.95
-5.58
-6.15
-6.72
-7.37
-8.05
-8.69
-9.27
-9.80
-10.42
-11.29
-12.48
-13.86
-15.03
-15.46
-14.67
-12.50
-9.18
-5.31
-1.64
1.27
3.20
4.30
4.99
5.63
6.38
7.15
7.68
7.76
7.38
6.73
6.11
5.76
5.72
5.85
5.94
5.79
5.39
4.89
4.45
4.20
4.06
3.80
3.16
2.00
0.41
-1.33
-2.87
-3.94
-4.53
-4.84
-5.26
-6.08
-7.45
-9.18
-10.83
-11.84
-11.80
-10.56
-8.30
-5.43
-2.41
0.46
3.05
5.39
7.49
9.28
10.58
11.20
11.10
10.42
9.48
8.64
8.13
7.95
7.92
7.82
7.53
7.11
6.78
6.74
7.06
7.58
8.00
8.05
7.64
6.92
6.18
5.72
5.65
5.85
6.02
5.83
5.03
3.55
1.47
-0.99
-3.57
-6.03
-8.07
-9.49
-10.12
-9.89
-8.87
-7.25
-5.32
-3.42
-1.85
-0.79
-0.22
0.04
0.29
0.80
1.71
2.97
4.31
5.46
6.21
6.49
6.43
6.19
5.93
5.69
5.43
5.13
4.78
4.44
4.12
3.73
3.05
1.78
-0.27
-3.10
-6.45
-9.89
-13.00
-15.52
-17.42
-18.85
-19.99
-20.83
-21.21
-20.85
-19.54
-17.34
-14.58
-11.75
-9.35
-7.64
-6.58
-5.91
-5.20
-4.17
-2.72
-0.99
0.74
2.26
3.55
4.76
6.10
7.70
9.48
11.13
12.35
12.97
13.02
12.72
12.32
11.91
11.33
10.35
8.70
6.36
3.56
0.66
-1.97
-4.21
-6.17
-8.11
-10.33
-12.85
-15.38
-17.40
-18.32
-17.82
-15.95
-13.15
-10.10
-7.38
-5.32
-3.93
-2.96
-2.09
-1.10
-0.00
1.03
1.76
2.13
2.27
2.51
3.11
4.13
5.27
6.07
6.13
5.40
4.20
3.03
2.30
2.04
2.00
1.75
1.08
0.08
-0.92
-1.55
-1.68
-1.51
-1.46
-1.95
-3.17
-5.00
-7.01
-8.73
-9.79
-10.00
-9.47
-8.37
-6.92
-5.21
-3.28
-1.16
1.02
2.96
4.31
4.81
4.47
3.59
2.66
2.15
2.30
3.03
4.10
5.10
5.81
6.12
6.13
6.01
5.93
5.94
6.00
6.00
5.84
5.46
4.88
4.16
3.37
2.59
1.84
1.14
0.47
-0.18
-0.82
-1.48
-2.23
-3.09
-4.08
-5.11
-5.94
-6.22
-5.62
-3.98
-1.43
1.61
4.56
6.78
7.92
7.89
6.91
5.40
3.78
2.38
1.37
0.82
0.71
1.02
1.67
2.49
3.25
3.66
3.42
2.42
0.76
-1.28
-3.30
-5.04
-6.39
-7.51
-8.73
-10.33
-12.44
-14.90
-17.36
-19.41
-20.80
-21.57
-21.96
-22.30
-22.74
-23.08
-22.87
-21.52
-18.70
-14.45
-9.20
-3.61
1.79
6.72
11.21
15.40
19.31
22.80
25.55
27.28
27.87
27.51
26.50
25.15
23.65
21.97
19.94
17.39
14.29
10.77
7.10
3.59
0.48
-2.17
-4.39
-6.36
-8.17
-9.83
-11.22
-12.15
-12.51
-12.35
-11.90
-11.48
-11.33
-11.44
-11.56
-11.29
-10.25
-8.26
-5.44
-2.07
1.46
4.90
8.09
10.94
13.34
15.17
16.33
16.82
16.81
16.55
16.26
16.02
15.70
15.04
13.76
11.62
8.60
4.85
0.71
-3.39
-6.98
-9.68
-11.25
-11.62
-10.83
-9.03
-6.51
-3.67
-1.03
0.81
1.43
0.70
-1.07
-3.18
-4.82
-5.40
-4.72
-3.03
-0.88
1.20
2.96
4.39
5.66
6.96
8.32
9.68
10.95
12.13
13.31
14.56
15.86
17.02
17.72
17.65
16.65
14.73
12.15
9.22
6.29
3.64
1.41
-0.37
-1.82
-3.09
-4.31
-5.53
-6.69
-7.68
-8.45
-9.09
-9.76
-10.55
-11.43
-12.12
-12.26
-11.59
-10.07
-8.01
-5.89
-4.22
-3.26
-2.98
-3.09
-3.23
-3.11
-2.62
-1.80
-0.80
0.28
1.34
2.36
3.24
3.90
4.20
4.10
3.68
3.12
2.61
2.32
2.24
2.27
2.22
1.97
1.44
0.65
-0.35
-1.53
-2.90
-4.49
-6.30
-8.31
-10.42
-12.46
-14.19
-15.39
-15.78
-15.24
-13.80
-11.66
-9.20
-6.79
-4.70
-2.99
-1.50
-0.02
1.58
3.20
4.62
5.59
6.07
6.29
6.65
7.47
8.89
10.71
12.53
13.94
14.71
14.82
14.44
13.74
12.85
11.76
10.40
8.77
6.89
4.90
2.92
1.03
-0.80
-2.69
-4.72
-6.92
-9.13
-11.09
-12.52
-13.22
-13.22
-12.79
-12.36
-12.38
-13.03
-14.19
-15.37
-15.94
-15.38
-13.47
-10.41
-6.65
-2.72
0.98
4.26
7.11
9.59
11.74
13.50
14.85
15.78
16.33
16.60
16.62
16.37
15.80
14.83
13.48
11.81
9.96
8.10
6.38
4.86
3.55
2.43
1.40
0.32
-0.98
-2.68
-4.83
-7.29
-9.72
-11.61
-12.46
-11.97
-10.17
-7.52
-4.81
-3.01
-2.98
-5.29
-10.02
-16.79
-24.77
-32.85
-39.87
-44.81
-47.04
-46.35
-43.01
-37.61
-30.93
-23.77
-16.85
-10.76
-5.90
-2.43
-0.22
1.12
2.14
3.37
5.12
7.39
9.91
12.34
14.40
16.04
17.36
18.53
19.70
20.85
21.78
22.19
21.82
20.55
18.55
16.23
14.10
12.58
11.80
11.55
11.41
10.94
9.93
8.46
6.78
5.10
3.45
1.62
-0.59
-3.26
-6.17
-8.86
-10.85
-11.80
-11.66
-10.54
-8.69
-6.39
-3.98
-1.82
-0.32
0.27
-0.06
-1.02
-2.14
-2.96
-3.25
-3.02
-2.45
-1.74
-0.90
0.23
1.87
4.19
7.16
10.57
14.07
17.34
20.07
22.03
23.05
23.04
22.02
20.15
17.71
15.03
12.47
10.27
8.52
7.10
5.75
4.04
1.61
-1.73
-5.87
-10.34
-14.46
-17.56
-19.27
-19.57
-18.81
-17.45
-15.88
-14.27
-12.67
-11.09
-9.61
-8.40
-7.62
-7.35
-7.52
-7.90
-8.16
-7.93
-6.90
-4.91
-2.09
1.23
4.57
7.46
9.64
11.11
12.15
13.06
14.07
15.17
16.12
16.60
16.36
15.36
13.84
12.22
11.03
10.68
11.30
12.66
14.25
15.42
15.60
14.57
12.51
10.08
8.27
8.18
10.69
16.11
23.97
32.96
41.20
46.74
48.16
45.03
38.04
28.78
19.22
11.15
5.75
3.37
3.65
5.71
8.46
10.83
12.02
11.56
9.42
5.89
1.54
-2.94
-6.99
-10.24
-12.62
-14.35
-15.80
-17.34
-19.22
-21.50
-24.04
-26.53
-28.59
-29.80
-29.89
-28.73
-26.40
-23.15
-19.33
-15.26
-11.20
-7.36
-3.90
-0.95
1.35
3.00
4.09
4.89
5.64
6.52
7.55
8.59
9.47
10.11
10.53
10.88
11.28
11.72
12.05
12.09
11.66
10.72
9.31
7.48
5.27
2.67
-0.35
-3.77
-7.49
-11.33
-15.12
-18.74
-22.15
-25.39
-28.53
-31.59
-34.55
-37.24
-39.44
-40.87
-41.38
-40.93
-39.69
-37.96
-36.07
-34.21
-32.36
-30.32
-27.77
-24.48
-20.42
-15.79
-10.96
-6.31
-2.08
1.62
4.80
7.47
9.61
11.15
12.09
12.53
12.68
12.70
12.67
12.49
11.92
10.80
9.10
7.05
4.97
3.16
1.66
0.32
-1.22
-3.31
-6.14
-9.72
-13.85
-18.22
-22.41
-25.94
-28.37
-29.34
-28.69
-26.56
-23.29
-19.37
-15.22
-11.16
-7.32
-3.71
-0.26
3.12
6.54
10.06
13.65
17.17
20.35
22.91
24.59
25.33
25.23
24.56
23.60
22.65
21.86
21.27
20.71
19.89
18.46
16.27
13.46
10.51
8.23
7.50
9.03
13.15
19.58
27.43
35.30
41.56
44.81
44.28
40.17
33.57
26.10
19.32
14.33
11.50
10.56
10.90
11.91
13.23
14.81
16.88
19.72
23.49
27.95
32.51
36.38
38.87
39.68
38.99
37.34
35.41
33.82
33.15
33.94
36.67
41.47
47.70
53.96
58.38
59.34
56.30
49.98
42.06
34.23
27.43
21.41
15.04
7.07
-3.31
-15.97
-30.06
-44.29
-57.28
-67.87
-75.23
-79.06
-79.51
-77.19
-72.81
-67.00
-60.27
-53.03
-45.85
-39.54
-34.91
-32.56
-32.45
-34.02
-36.39
-38.77
-40.72
-42.15
-43.11
-43.54
-43.14
-41.51
-38.35
-33.70
-27.94
-21.71
-15.83
-11.02
-7.93
-6.88
-7.82
-10.31
-13.57
-16.73
-18.98
-19.83
-19.07
-16.80
-13.33
-9.15
-4.82
-0.93
2.05
3.88
4.69
4.90
5.06
5.58
6.55
7.76
8.84
9.45
9.47
9.01
8.24
7.34
6.37
5.33
4.18
3.02
2.01
1.31
0.99
0.92
0.77
0.20
-1.02
-2.89
-5.08
-7.10
-8.49
-8.99
-8.69
-7.91
-7.12
-6.76
-7.07
-8.10
-9.67
-11.51
-13.28
-14.68
-15.48
-15.54
-14.86
-13.56
-11.91
-10.23
-8.79
-7.74
-7.07
-6.64
-6.28
-5.85
-5.26
-4.46
-3.46
-2.35
-1.26
-0.40
0.07
0.14
-0.06
-0.28
-0.30
-0.04
0.39
0.75
0.88
0.71
0.32
-0.16
-0.73
-1.45
-2.51
-3.99
-5.85
-7.83
-9.57
-10.73
-11.10
-10.61
-9.42
-7.74
-5.85
-3.94
-2.15
-0.54
0.90
2.18
3.24
4.05
4.55
4.78
4.81
4.81
4.89
5.09
5.39
5.67
5.82
5.77
5.52
5.13
4.63
4.01
3.19
2.14
0.89
-0.45
-1.68
-2.69
-3.42
-3.98
-4.59
-5.42
-6.53
-7.69
-8.47
-8.44
-7.36
-5.35
-2.83
-0.37
1.58
2.91
3.76
4.44
5.12
5.77
6.19
6.15
5.60
4.80
4.09
3.84
4.17
4.92
5.73
6.25
6.32
5.96
5.41
4.87
4.51
4.34
4.21
4.00
3.55
2.78
1.65
0.23
-1.40
-3.11
-4.68
-5.87
-6.38
-6.02
-4.73
-2.68
-0.20
2.26
4.32
5.74
6.54
6.87
6.93
6.90
6.79
6.58
6.16
5.57
4.98
4.57
4.54
4.89
5.44
5.89
5.96
5.54
4.73
3.73
2.73
1.79
0.83
-0.38
-2.00
-4.09
-6.54
-9.07
-11.37
-13.09
-13.93
-13.75
-12.52
-10.41
-7.74
-4.85
-2.08
0.36
2.35
3.85
4.86
5.44
5.68
5.74
5.76
5.89
6.24
6.88
7.74
8.70
9.56
10.11
10.24
9.94
9.31
8.49
7.62
6.77
5.92
5.04
4.13
3.20
2.26
1.20
-0.13
-1.92
-4.18
-6.67
-8.86
-10.13
-10.02
-8.42
-5.66
-2.34
0.92
3.72
5.95
7.72
9.18
10.40
11.25
11.60
11.37
10.69
9.92
9.44
9.54
10.23
11.21
12.07
12.44
12.15
11.27
10.04
8.69
7.32
5.92
4.37
2.58
0.55
-1.68
-4.06
-6.54
-9.07
-11.54
-13.64
-14.95
-14.97
-13.36
-10.13
-5.66
-0.60
4.26
8.36
11.42
13.46
14.70
15.33
15.51
15.30
14.81
14.24
13.92
14.12
14.94
16.21
17.56
18.55
18.91
18.61
17.89
17.12
16.58
16.39
16.36
16.09
15.05
12.80
9.06
3.80
-2.74
-10.11
-17.70
-24.85
-30.99
-35.70
-38.79
-40.39
-40.91
-40.95
-41.16
-42.01
-43.54
-45.36
-46.79
-47.09
-45.86
-43.16
-39.55
-35.86
-32.85
-30.97
-30.28
-30.51
-31.29
-32.37
-33.70
-35.40
-37.62
-40.28
-43.10
-45.55
-47.12
-47.41
-46.19
-43.42
-39.15
-33.53
-26.88
-19.69
-12.53
-5.89
0.12
5.83
11.90
18.95
27.22
36.33
45.35
53.15
58.83
61.92
62.58
61.32
58.78
55.54
51.98
48.38
44.93
41.82
39.19
37.04
35.27
33.65
31.99
30.22
28.44
26.90
25.74
25.01
24.56
24.10
23.35
22.20
20.69
19.00
17.36
15.94
14.79
13.79
12.72
11.35
9.51
7.31
5.21
3.97
4.45
7.43
13.27
21.76
32.16
43.34
54.15
63.68
71.51
77.70
82.57
86.48
89.49
91.38
91.64
89.82
85.82
79.92
72.71
64.74
56.31
47.40
37.99
28.57
20.31
14.86
13.72
17.40
24.99
34.39
43.06
48.79
50.26
46.93
38.71
25.66
8.04
-13.31
-36.65
-59.38
-78.75
-92.74
-100.76
-103.85
-104.04
-103.50
-103.81
-105.53
-108.28
-111.21
-113.35
-113.98
-112.69
-109.33
-103.93
-96.48
-87.05
-75.83
-63.28
-50.11
-37.31
-25.91
-16.70
-10.11
-6.00
-3.84
-2.87
-2.36
-1.84
-1.18
-0.47
0.08
0.36
0.36
0.08
-0.53
-1.67
-3.54
-6.22
-9.42
-12.52
-14.64
-14.99
-13.23
-9.51
-4.50
0.92
5.99
10.25
13.61
16.19
18.19
19.70
20.70
21.12
20.90
20.12
18.94
17.56
16.16
14.85
13.62
12.51
11.66
11.43
12.23
14.48
18.31
23.50
29.51
35.56
40.88
44.80
46.85
46.83
44.74
40.76
35.24
28.54
21.07
13.22
5.44
-1.71
-7.52
-11.32
-12.76
-11.95
-9.61
-6.72
-4.23
-2.72
-2.25
-2.51
-3.09
-3.71
-4.27
-4.77
-5.19
-5.35
-5.03
-4.01
-2.27
0.00
2.48
4.81
6.71
8.05
8.79
8.93
8.46
7.35
5.69
3.67
1.60
-0.18
-1.41
-2.00
-2.08
-1.92
-1.86
-2.20
-3.10
-4.52
-6.20
-7.69
-8.50
-8.20
-6.57
-3.69
0.09
4.27
8.29
11.72
14.28
15.83
16.40
16.12
15.20
13.86
12.32
10.73
9.19
7.80
6.62
5.74
5.23
5.10
5.32
5.81
6.44
7.08
7.57
7.83
7.78
7.39
6.65
5.51
3.89
1.72
-1.05
-4.33
-7.93
-11.61
-15.14
-18.36
-21.14
-23.30
-24.56
-24.53
-22.87
-19.50
-14.69
-9.09
-3.49
1.41
5.20
7.84
9.51
10.49
11.02
11.20
11.08
10.69
10.09
9.36
8.57
7.74
6.83
5.72
4.26
2.36
0.05
-2.50
-5.06
-7.41
-9.40
-11.01
-12.32
-13.44
-14.44
-15.33
-16.01
-16.34
-16.16
-15.41
-14.12
-12.42
-10.54
-8.74
-7.23
-6.13
-5.35
-4.67
-3.74
-2.21
0.14
3.34
7.14
11.14
14.82
17.73
19.60
20.42
20.38
19.79
18.94
18.00
17.00
15.85
14.48
12.86
11.12
9.47
8.13
7.30
7.03
7.25
7.76
8.34
8.76
8.84
8.47
7.55
6.04
3.95
1.41
-1.30
-3.85
-5.90
-7.27
-8.02
-8.42
-8.80
-9.38
-10.17
-10.87
-11.07
-10.39
-8.65
-5.94
-2.58
0.99
4.27
6.90
8.69
9.63
9.89
9.63
9.02
8.10
6.91
5.54
4.12
2.87
1.95
1.41
1.15
0.97
0.68
0.16
-0.53
-1.26
-1.91
-2.40
-2.69
-2.85
-2.88
-2.82
-2.66
-2.45
-2.29
-2.35
-2.82
-3.90
-5.67
-8.03
-10.70
-13.26
-15.28
-16.46
-16.70
-16.11
-14.91
-13.38
-11.74
-10.13
-8.65
-7.36
-6.37
-5.75
-5.57
-5.79
-6.31
-6.96
-7.57
-8.08
-8.57
-9.24
-10.32
-11.91
-13.96
-16.27
-18.59
-20.73
-22.64
-24.34
-25.88
-27.29
-28.53
-29.58
-30.47
-31.23
-31.84
-32.11
-31.72
-30.27
-27.50
-23.39
-18.19
-12.41
-6.63
-1.40
2.85
5.89
7.71
8.56
8.91
9.30
10.18
11.65
13.47
15.14
16.10
16.02
14.86
12.99
11.00
9.57
9.28
10.51
13.25
17.15
21.51
25.48
28.17
28.92
27.41
23.78
18.59
12.69
7.01
2.36
-0.80
-2.44
-2.95
-2.96
-3.15
-3.91
-5.25
-6.76
-7.85
-7.97
-6.83
-4.45
-1.18
2.45
5.85
8.38
9.40
8.40
5.02
-0.68
-8.19
-16.52
-24.44
-30.75
-34.60
-35.71
-34.40
-31.34
-27.37
-23.19
-19.25
-15.72
-12.62
-9.89
-7.43
-5.19
-3.14
-1.29
0.23
1.16
1.28
0.49
-0.95
-2.45
-3.27
-2.84
-0.91
2.32
6.36
10.68
14.82
18.49
21.54
23.92
25.63
26.56
26.40
24.69
20.96
15.01
7.24
-1.30
-9.14
-14.89
-17.68
-17.45
-14.79
-10.62
-5.79
-0.88
3.69
7.56
10.37
11.79
11.73
10.45
8.47
6.38
4.58
3.07
1.51
-0.65
-3.92
-8.43
-13.93
-19.78
-25.13
-29.16
-31.24
-31.13
-28.99
-25.36
-21.06
-16.90
-13.58
-11.41
-10.23
-9.57
-8.68
-6.93
-3.92
0.41
5.74
11.59
17.47
23.10
28.45
33.70
39.20
45.25
52.04
59.36
66.48
72.11
74.60
72.43
64.75
51.83
35.05
16.50
-1.77
-18.22
-31.95
-42.51
-49.56
-52.81
-52.25
-48.36
-42.14
-34.91
-27.76
-21.38
-16.02
-11.83
-9.09
-8.32
-9.90
-13.83
-19.41
-25.50
-30.87
-34.65
-36.50
-36.48
-34.86
-31.85
-27.60
-22.22
-15.96
-9.29
-2.81
2.81
7.10
9.86
11.23
11.63
11.58
11.55
11.72
12.05
12.33
12.30
11.86
11.03
10.01
8.96
7.94
6.87
5.60
3.98
2.08
0.11
-1.62
-2.94
-3.84
-4.61
-5.70
-7.42
-9.77
-12.27
-14.14
-14.61
-13.22
-10.09
-5.83
-1.32
2.59
5.40
7.03
7.69
7.74
7.50
7.17
6.79
6.42
6.11
5.97
6.13
6.65
7.40
8.14
8.55
8.46
7.94
7.36
7.18
7.79
9.35
11.76
14.77
18.12
21.56
24.84
27.58
29.27
29.38
27.56
23.84
18.71
12.99
7.47
2.73
-1.10
-4.16
-6.75
-9.15
-11.52
-13.94
-16.41
-18.87
-21.23
-23.28
-24.75
-25.31
-24.75
-22.98
-20.15
-16.61
-12.78
-9.06
-5.76
-2.93
-0.51
1.74
4.04
6.60
9.41
12.29
14.82
16.54
17.08
16.33
14.49
12.02
9.47
7.24
5.51
4.20
3.19
2.34
1.61
0.99
0.45
-0.17
-1.09
-2.49
-4.40
-6.71
-9.20
-11.68
-14.09
-16.44
-18.82
-21.15
-23.26
-24.86
-25.63
-25.43
-24.30
-22.53
-20.52
-18.61
-16.95
-15.46
-13.92
-12.04
-9.72
-7.05
-4.33
-1.96
-0.25
0.75
1.15
1.18
1.06
0.85
0.51
-0.09
-0.94
-1.96
-3.00
-3.93
-4.69
-5.32
-5.92
-6.57
-7.32
-8.14
-8.99
-9.77
-10.42
-10.87
-11.08
-11.05
-10.74
-10.12
-9.10
-7.60
-5.61
-3.21
-0.63
1.82
3.87
5.37
6.43
7.32
8.32
9.57
10.96
12.18
12.94
13.11
12.83
12.34
11.83
11.29
10.50
9.23
7.37
5.10
2.78
0.76
-0.81
-2.01
-3.08
-4.23
-5.53
-6.82
-7.90
-8.58
-8.87
-8.91
-8.90
-9.05
-9.39
-9.80
-10.04
-9.83
-8.99
-7.46
-5.42
-3.15
-0.98
0.84
2.20
3.10
3.65
3.91
3.89
3.60
3.05
2.37
1.75
1.39
1.41
1.75
2.23
2.60
2.72
2.63
2.45
2.42
2.67
3.17
3.73
4.12
4.18
3.91
3.40
2.85
2.35
1.87
1.27
0.40
-0.78
-2.22
-3.75
-5.20
-6.46
-7.45
-8.11
-8.32
-7.93
-6.80
-4.96
-2.57
0.05
2.54
4.56
5.91
6.55
6.59
6.19
5.59
4.94
4.34
3.81
3.29
2.75
2.22
1.77
1.51
1.46
1.56
1.63
1.48
1.06
0.46
-0.10
-0.43
-0.41
-0.15
0.10
0.06
-0.42
-1.33
-2.51
-3.76
-4.95
-6.03
-6.97
-7.68
-7.95
-7.48
-6.04
-3.58
-0.33
3.25
6.58
9.17
10.80
11.50
11.57
11.36
11.10
10.81
10.39
9.70
8.77
7.82
7.15
6.97
7.27
7.78
8.09
7.90
7.07
5.77
4.32
3.02
2.03
1.29
0.58
-0.30
-1.48
-2.88
-4.38
-5.81
-7.11
-8.23
-9.14
-9.71
-9.70
-8.84
-7.00
-4.20
-0.73
2.93
6.29
8.98
10.89
12.06
12.69
12.95
12.99
12.88
12.65
12.37
12.11
12.00
12.13
12.49
12.90
13.09
12.75
11.72
10.05
8.05
6.08
4.47
3.30
2.44
1.62
0.54
-0.93
-2.84
-5.15
-7.76
-10.58
-13.40
-15.87
-17.44
-17.60
-16.03
-12.78
-8.37
-3.56
0.85
4.28
6.54
7.75
8.23
8.35
8.36
8.40
8.45
8.40
8.18
7.77
7.27
6.81
6.51
6.43
6.54
6.73
6.82
6.66
6.11
5.09
3.62
1.81
-0.16
-2.07
-3.76
-5.17
-6.39
-7.64
-9.21
-11.32
-14.04
-17.26
-20.53
-23.23
-24.63
-24.10
-21.37
-16.64
-10.55
-4.02
2.07
7.10
10.85
13.44
15.23
16.52
17.42
17.88
17.75
16.99
15.77
14.37
13.17
12.33
11.75
11.09
10.02
8.44
6.56
4.85
3.71
3.30
3.33
3.24
2.50
0.84
-1.57
-4.24
-6.65
-8.47
-9.76
-10.86
-12.18
-13.98
-16.28
-18.91
-21.62
-24.09
-26.00
-26.89
-26.32
-23.88
-19.47
-13.45
-6.61
0.04
5.56
9.41
11.55
12.36
12.39
12.10
11.71
11.25
10.67
10.01
9.49
9.38
9.93
11.16
12.79
14.39
15.47
15.76
15.32
14.46
13.60
13.04
12.81
12.64
12.20
11.22
9.70
7.88
6.15
4.83
4.01
3.53
3.00
2.00
0.23
-2.41
-5.79
-9.52
-13.05
-15.68
-16.79
-15.93
-13.00
-8.29
-2.45
3.72
9.42
14.05
17.30
19.12
19.71
19.36
18.43
17.27
16.17
15.38
15.06
15.26
15.91
16.84
17.84
18.66
19.13
19.16
18.73
17.88
16.67
15.20
13.61
12.06
10.68
9.50
8.36
6.96
4.92
1.88
-2.33
-7.62
-13.63
-19.77
-25.34
-29.63
-32.06
-32.33
-30.48
-26.90
-22.23
-17.21
-12.48
-8.45
-5.30
-2.98
-1.29
0.01
1.17
2.38
3.73
5.21
6.75
8.21
9.54
10.76
11.91
13.07
14.19
15.10
15.53
15.20
13.98
11.96
9.47
6.88
4.49
2.42
0.58
-1.25
-3.24
-5.50
-8.06
-10.91
-14.05
-17.34
-20.47
-22.86
-23.86
-22.91
-19.86
-15.06
-9.36
-3.75
0.91
4.17
6.04
6.85
7.05
6.98
6.89
6.86
6.99
7.33
7.95
8.81
9.76
10.53
10.76
10.23
8.91
6.98
4.84
2.93
1.59
0.96
0.87
0.97
0.82
0.09
-1.20
-2.72
-3.90
-4.25
-3.63
-2.41
-1.38
-1.40
-3.04
-6.29
-10.56
-14.90
-18.27
-19.91
-19.29
-16.14
-10.32
-1.94
8.57
20.28
31.89
41.98
49.44
53.74
54.92
53.36
49.48
43.62
36.09
27.40
18.37
9.95
3.03
-1.91
-4.95
-6.56
-7.35
-7.84
-8.31
-8.93
-9.79
-11.00
-12.70
-14.90
-17.50
-20.24
-22.82
-25.02
-26.76
-28.11
-29.16
-29.95
-30.35
-30.09
-28.84
-26.44
-23.02
-19.00
-14.99
-11.49
-8.78
-6.79
-5.18
-3.54
-1.58
0.78
3.38
5.95
8.22
10.04
11.43
12.54
13.56
14.65
15.81
16.90
17.71
18.01
17.70
16.81
15.48
13.87
12.06
10.05
7.81
5.27
2.43
-0.68
-4.11
-7.94
-12.19
-16.69
-20.99
-24.31
-25.86
-25.08
-21.90
-16.82
-10.74
-4.61
0.82
5.15
8.34
10.57
12.13
13.33
14.49
15.92
17.79
20.15
22.83
25.51
27.80
29.42
30.21
30.13
29.22
27.54
25.18
22.29
19.10
15.91
12.99
10.54
8.60
7.10
5.92
4.93
4.04
3.21
2.48
2.00
2.06
3.03
5.18
8.64
13.17
18.28
23.34
27.74
31.07
33.17
34.14
34.22
33.80
33.20
32.60
31.83
30.43
27.77
23.34
17.09
9.43
1.13
-7.04
-14.55
-21.21
-27.05
-32.08
-36.14
-38.92
-40.19
-39.90
-38.33
-35.96
-33.28
-30.63
-28.13
-25.75
-23.53
-21.57
-20.09
-19.24
-19.03
-19.19
-19.32
-19.03
-18.15
-16.73
-15.11
-13.62
-12.51
-11.81
-11.37
-11.00
-10.53
-9.96
-9.37
-8.91
-8.63
-8.50
-8.42
-8.28
-8.03
-7.75
-7.58
-7.70
-8.23
-9.16
-10.36
-11.56
-12.38
-12.34
-10.95
-7.83
-2.85
3.75
11.32
18.97
25.73
30.78
33.62
34.13
32.47
29.04
24.34
18.89
13.11
7.21
1.23
-4.94
-11.29
-17.59
-23.23
-27.40
-29.45
-29.27
-27.53
-25.54
-24.74
-26.01
-29.09
-32.66
-34.71
-33.28
-27.22
-16.56
-2.65
12.07
24.54
31.75
31.68
24.16
11.38
-2.40
-12.04
-13.33
-4.71
12.09
32.73
52.06
66.16
73.57
75.19
73.20
69.67
65.58
60.76
54.47
46.23
36.25
25.27
14.17
3.48
-6.78
-16.91
-27.12
-37.32
-47.03
-55.61
-62.50
-67.55
-71.02
-73.56
-75.87
-78.45
-81.27
-83.73
-84.90
-83.83
-80.06
-73.84
-66.09
-58.05
-50.77
-44.60
-39.09
-33.22
-25.89
-16.50
-5.17
7.23
19.50
30.51
39.59
46.55
51.44
54.32
54.96
52.97
48.01
40.22
30.48
20.32
11.55
5.67
3.34
4.09
6.49
8.76
9.45
8.00
4.90
1.32
-1.39
-2.35
-1.45
0.79
3.48
5.86
7.53
8.48
8.95
9.26
9.60
9.94
10.03
9.41
7.55
4.06
-1.14
-7.66
-14.61
-20.60
-23.87
-22.57
-15.29
-1.84
16.21
35.48
51.54
60.36
59.76
50.20
34.51
16.64
0.12
-12.92
-21.89
-27.13
-29.19
-28.41
-25.15
-20.12
-14.66
-10.36
-8.54
-9.61
-12.94
-17.20
-20.97
-23.34
-24.19
-24.06
-23.73
-23.85
-24.66
-26.02
-27.58
-29.01
-30.15
-30.97
-31.55
-31.95
-32.14
-32.03
-31.50
-30.52
-29.11
-27.38
-25.51
-23.55
-21.47
-19.09
-16.11
-12.30
-7.70
-2.66
2.15
6.05
8.55
9.60
9.51
8.82
8.00
7.30
6.74
6.16
5.45
4.54
3.43
2.13
0.66
-0.97
-2.68
-4.30
-5.69
-6.74
-7.44
-7.87
-8.18
-8.47
-8.86
-9.34
-9.84
-10.15
-9.96
-8.98
-7.11
-4.59
-1.91
0.38
1.97
2.94
3.76
5.00
6.99
9.64
12.52
15.08
17.08
18.66
20.23
22.17
24.56
27.08
29.13
30.22
30.15
29.16
27.76
26.50
25.69
25.35
25.15
24.64
23.45
21.34
18.31
14.51
10.29
6.04
2.25
-0.65
-2.46
-3.25
-3.51
-3.92
-5.13
-7.55
-11.11
-15.32
-19.45
-22.82
-24.97
-25.76
-25.37
-24.11
-22.33
-20.29
-18.16
-16.00
-13.82
-11.63
-9.48
-7.42
-5.55
-3.95
-2.71
-1.88
-1.47
-1.43
-1.68
-2.14
-2.73
-3.42
-4.18
-4.98
-5.80
-6.60
-7.37
-8.10
-8.83
-9.57
-10.28
-10.83
-11.06
-10.79
-9.94
-8.57
-6.83
-4.93
-3.06
-1.29
0.41
2.11
3.85
5.56
7.02
7.98
8.26
7.87
7.02
6.03
5.19
4.60
4.22
3.89
3.47
2.91
2.24
1.49
0.67
-0.35
-1.63
-3.20
-4.97
-6.70
-8.16
-9.19
-9.80
-10.14
-10.43
-10.73
-10.95
-10.81
-9.95
-8.18
-5.55
-2.35
0.90
3.78
6.01
7.53
8.55
9.23
9.72
10.00
9.97
9.53
8.72
7.76
6.94
6.53
6.61
6.97
7.24
7.03
6.16
4.74
3.07
1.54
0.33
-0.59
-1.44
-2.45
-3.64
-4.91
-6.03
-6.90
-7.60
-8.28
-9.11
-10.03
-10.76
-10.94
-10.25
-8.68
-6.47
-4.10
-1.96
-0.30
0.86
1.64
2.21
2.67
3.02
3.20
3.21
3.08
2.93
2.92
3.18
3.75
4.50
5.21
5.58
5.45
4.84
3.94
3.06
2.42
2.05
1.77
1.23
0.18
-1.43
-3.40
-5.39
-7.06
-8.25
-8.95
-9.23
-9.09
-8.41
-7.04
-4.94
-2.29
0.47
2.86
4.50
5.28
5.31
4.88
4.26
3.63
3.09
2.68
2.43
2.40
2.63
3.07
3.64
4.13
4.35
4.18
3.56
2.61
1.53
0.53
-0.26
-0.89
-1.56
-2.58
-4.12
-6.18
-8.46
-10.48
-11.73
-11.85
-10.75
-8.69
-6.08
-3.41
-0.99
1.05
2.74
4.18
5.38
6.27
6.69
6.62
6.18
5.67
5.47
5.84
6.78
8.07
9.30
10.11
10.29
9.91
9.15
8.30
7.51
6.79
6.03
5.07
3.80
2.19
0.32
-1.67
-3.57
-5.17
-6.19
-6.39
-5.56
-3.64
-0.79
2.64
6.14
9.22
11.54
13.01
13.78
14.13
14.34
14.55
14.78
14.96
14.98
14.83
14.51
14.10
13.60
12.96
12.05
10.74
9.00
6.92
4.70
2.54
0.58
-1.23
-3.05
-5.14
-7.65
-10.59
-13.71
-16.56
-18.58
-19.23
-18.24
-15.64
-11.75
-7.15
-2.42
1.92
5.55
8.33
10.27
11.45
11.93
11.82
11.23
10.28
9.14
7.97
6.87
5.86
4.88
3.83
2.62
1.21
-0.43
-2.23
-4.19
-6.38
-8.85
-11.62
-14.58
-17.39
-19.66
-21.00
-21.27
-20.57
-19.17
-17.27
-14.85
-11.63
-7.26
-1.55
5.22
12.38
18.96
24.16
27.51
29.05
29.16
28.28
26.72
24.63
22.09
19.28
16.50
14.17
12.58
11.84
11.74
11.85
11.75
11.11
9.88
8.24
6.50
4.97
3.83
3.01
2.32
1.45
0.25
-1.33
-3.17
-5.17
-7.32
-9.59
-11.90
-13.87
-14.91
-14.35
-11.81
-7.41
-1.87
3.73
8.39
11.57
13.23
13.82
13.86
13.72
13.52
13.15
12.55
11.78
11.09
10.75
10.95
11.60
12.40
12.92
12.88
12.22
11.13
9.93
8.82
7.84
6.80
5.52
3.92
2.15
0.44
-1.00
-2.18
-3.32
-4.72
-6.57
-8.70
-10.62
-11.68
-11.36
-9.50
-6.41
-2.72
0.77
3.50
5.19
5.94
6.06
5.89
5.67
5.45
5.14
4.68
4.09
3.52
3.22
3.35
3.89
4.58
5.05
4.90
3.99
2.37
0.36
-1.70
-3.55
-5.13
-6.53
-7.88
-9.24
-10.63
-12.00
-13.44
-15.11
-17.21
-19.78
-22.46
-24.59
-25.29
-23.91
-20.30
-14.98
-8.93
-3.20
1.47
4.91
7.37
9.29
11.00
12.59
13.97
15.05
15.82
16.46
17.16
18.05
19.06
19.97
20.48
20.37
19.59
18.39
17.13
16.26
16.06
16.50
17.29
17.97
18.15
17.67
16.59
15.07
13.23
10.96
8.02
4.13
-0.82
-6.66
-13.04
-19.50
-25.56
-30.75
-34.61
-36.67
-36.57
-34.14
-29.51
-23.12
-15.59
-7.62
0.17
7.32
13.56
18.79
23.12
26.70
29.68
32.18
34.27
36.01
37.51
38.89
40.22
41.34
41.89
41.34
39.26
35.47
30.22
24.09
17.80
11.96
6.93
2.72
-0.85
-4.09
-7.28
-10.58
-14.01
-17.52
-21.04
-24.51
-27.94
-31.35
-34.66
-37.67
-40.07
-41.43
-41.41
-39.77
-36.52
-31.87
-26.22
-20.05
-13.86
-8.05
-2.92
1.36
4.74
7.20
8.84
9.81
10.31
10.59
10.84
11.15
11.47
11.68
11.62
11.20
10.46
9.49
8.44
7.38
6.25
4.94
3.35
1.55
-0.20
-1.51
-2.09
-1.86
-1.04
-0.11
0.45
0.33
-0.52
-1.87
-3.43
-4.97
-6.37
-7.53
-8.29
-8.41
-7.62
-5.83
-3.22
-0.20
2.69
5.02
6.60
7.55
8.20
8.85
9.68
10.66
11.59
12.28
12.67
12.90
13.26
14.06
15.33
16.83
18.05
18.42
17.64
15.87
13.66
11.72
10.51
9.97
9.57
8.56
6.43
3.14
-0.80
-4.64
-7.76
-9.96
-11.48
-12.80
-14.37
-16.36
-18.69
-21.07
-23.23
-25.03
-26.39
-27.28
-27.62
-27.26
-26.13
-24.31
-22.04
-19.57
-16.90
-13.57
-8.66
-1.25
9.07
21.69
34.86
46.19
53.47
55.48
52.31
45.21
35.84
25.57
15.23
5.05
-4.78
-13.84
-21.28
-26.04
-27.20
-24.31
-17.62
-8.11
2.70
13.02
21.11
25.52
25.37
20.49
11.47
-0.43
-13.45
-25.71
-35.58
-42.09
-45.16
-45.45
-44.04
-42.01
-40.04
-38.31
-36.59
-34.50
-31.75
-28.27
-24.23
-19.90
-15.55
-11.36
-7.47
-3.92
-0.83
1.66
3.42
4.38
4.62
4.37
3.96
3.64
3.48
3.34
2.97
2.18
0.93
-0.59
-2.08
-3.22
-3.81
-3.82
-3.35
-2.64
-1.95
-1.55
-1.52
-1.70
-1.58
-0.34
2.93
8.83
17.30
27.44
37.58
45.74
50.15
49.67
44.11
34.18
21.29
7.16
-6.44
-18.06
-26.69
-31.99
-34.25
-34.30
-33.33
-32.56
-32.87
-34.59
-37.25
-39.64
-40.21
-37.53
-31.04
-21.24
-9.58
2.14
12.44
20.61
26.58
30.57
32.61
32.44
29.70
24.42
17.36
9.86
3.39
-1.05
-3.28
-3.91
-3.88
-4.01
-4.68
-5.83
-7.22
-8.70
-10.36
-12.58
-15.66
-19.67
-24.29
-28.86
-32.63
-35.03
-35.87
-35.26
-33.49
-30.86
-27.56
-23.70
-19.38
-14.79
-10.23
-5.99
-2.28
0.84
3.52
5.97
8.40
10.86
13.19
15.12
16.33
16.67
16.21
15.24
14.08
12.98
11.97
10.83
9.36
7.44
5.21
2.96
0.96
-0.61
-1.80
-2.75
-3.59
-4.29
-4.73
-4.77
-4.45
-3.98
-3.71
-3.95
-4.79
-6.02
-7.22
-7.89
-7.66
-6.43
-4.34
-1.73
1.02
3.66
6.01
8.08
9.88
11.42
12.61
13.31
13.38
12.76
11.57
10.05
8.53
7.27
6.35
5.70
5.12
4.48
3.73
2.95
2.27
1.74
1.35
0.96
0.42
-0.25
-0.93
-1.36
-1.31
-0.72
0.26
1.29
2.05
2.34
2.18
1.74
1.22
0.78
0.46
0.28
0.32
0.68
1.45
2.64
4.05
5.41
6.40
6.84
6.74
6.30
5.81
5.51
5.47
5.59
5.60
5.29
4.58
3.57
2.52
1.65
1.07
0.71
0.37
-0.16
-0.91
-1.77
-2.50
-2.79
-2.33
-0.84
1.92
5.99
11.20
17.03
22.69
27.42
30.65
32.23
32.43
31.76
30.78
29.85
29.15
28.63
28.15
27.54
26.61
25.15
22.96
19.89
15.91
11.01
5.25
-1.35
-8.76
-16.89
-25.43
-33.75
-41.00
-46.19
-48.58
-47.89
-44.36
-38.76
-32.06
-25.30
-19.27
-14.49
-11.33
-9.97
-10.48
-12.76
-16.37
-20.62
-24.65
-27.70
-29.34
-29.53
-28.63
-27.03
-25.09
-22.92
-20.50
-17.84
-15.13
-12.71
-10.90
-9.86
-9.41
-9.15
-8.67
-7.74
-6.45
-5.08
-3.93
-3.13
-2.56
-1.95
-1.08
0.07
1.28
2.22
2.64
2.48
1.99
1.46
1.17
1.16
1.29
1.30
0.95
0.13
-1.13
-2.67
-4.24
-5.56
-6.36
-6.44
-5.71
-4.28
-2.40
-0.40
1.45
2.99
4.23
5.25
6.15
6.92
7.52
7.86
7.95
7.88
7.77
7.70
7.64
7.48
7.15
6.66
6.14
5.75
5.57
5.48
5.25
4.65
3.57
2.11
0.56
-0.78
-1.72
-2.27
-2.62
-3.02
-3.63
-4.49
-5.49
-6.44
-7.15
-7.49
-7.40
-6.85
-5.81
-4.26
-2.25
0.07
2.42
4.45
5.85
6.50
6.51
6.14
5.70
5.42
5.36
5.50
5.76
6.13
6.60
7.19
7.84
8.41
8.75
8.71
8.20
7.23
5.91
4.37
2.86
1.58
0.67
0.15
-0.14
-0.47
-1.14
-2.30
-3.96
-5.92
-7.87
-9.51
-10.61
-11.05
-10.74
-9.63
-7.72
-5.10
-2.01
1.16
3.91
5.92
7.05
7.49
7.64
7.86
8.30
8.90
9.38
9.55
9.39
9.05
8.73
8.55
8.38
8.02
7.30
6.20
4.91
3.70
2.77
2.16
1.73
1.30
0.69
-0.07
-0.83
-1.40
-1.62
-1.49
-1.22
-1.12
-1.53
-2.64
-4.41
-6.50
-8.38
-9.47
-9.38
-8.04
-5.75
-3.09
-0.69
1.03
1.87
1.96
1.56
0.93
0.29
-0.32
-0.87
-1.31
-1.59
-1.61
-1.35
-0.91
-0.42
0.00
0.33
0.66
1.20
2.10
3.42
5.08
6.84
8.48
9.78
10.67
11.23
11.55
11.76
11.89
11.86
11.57
10.89
9.79
8.34
6.69
4.98
3.35
1.89
0.70
-0.09
-0.31
0.15
1.30
2.99
4.86
6.57
7.84
8.53
8.72
8.53
8.09
7.50
6.83
6.14
5.59
5.28
5.28
5.59
6.09
6.57
6.81
6.66
6.07
5.15
4.08
3.09
2.37
1.99
1.90
1.95
1.98
1.95
1.90
1.93
2.16
2.56
2.95
3.10
2.78
1.84
0.31
-1.64
-3.71
-5.54
-6.79
-7.26
-6.87
-5.74
-4.12
-2.33
-0.67
0.66
1.52
1.89
1.81
1.36
0.70
0.04
-0.39
-0.37
0.18
1.21
2.49
3.73
4.68
5.22
5.41
5.33
5.10
4.70
4.05
3.06
1.76
0.25
-1.26
-2.58
-3.66
-4.55
-5.39
-6.25
-7.12
-7.92
-8.59
-9.15
-9.73
-10.50
-11.49
-12.52
-13.27
-13.38
-12.66
-11.20
-9.34
-7.52
-6.16
-5.42
-5.26
-5.45
-5.71
-5.85
-5.79
-5.61
-5.35
-4.97
-4.32
-3.16
-1.35
1.10
3.91
6.59
8.68
9.86
10.12
9.73
9.07
8.43
7.90
7.31
6.48
5.30
3.86
2.42
1.28
0.59
0.31
0.29
0.27
0.10
-0.34
-1.08
-2.14
-3.54
-5.24
-7.00
-8.46
-9.15
-8.72
-7.12
-4.64
-1.88
0.53
2.10
2.71
2.51
1.91
1.26
0.83
0.71
0.85
1.20
1.82
2.84
4.39
6.52
9.12
11.90
14.47
16.52
17.85
18.51
18.69
18.59
18.36
17.94
17.17
15.82
13.84
11.36
8.70
6.20
4.09
2.39
0.93
-0.57
-2.27
-4.17
-6.16
-8.13
-10.06
-12.04
-14.12
-16.23
-17.99
-18.90
-18.44
-16.40
-12.96
-8.68
-4.36
-0.68
1.92
3.45
4.18
4.54
4.89
5.32
5.78
6.09
6.18
6.18
6.36
6.98
8.09
9.46
10.66
11.22
10.91
9.80
8.21
6.50
4.88
3.33
1.61
-0.48
-2.97
-5.62
-8.04
-9.84
-10.86
-11.21
-11.26
-11.44
-12.14
-13.54
-15.57
-17.95
-20.22
-21.89
-22.54
-21.92
-19.99
-16.89
-12.95
-8.57
-4.19
-0.21
3.06
5.43
6.90
7.64
7.98
8.23
8.65
9.27
10.00
10.67
11.14
11.43
11.59
11.69
11.75
11.70
11.46
11.00
10.36
9.60
8.79
7.94
7.00
5.95
4.81
3.63
2.55
1.68
1.08
0.71
0.47
0.15
-0.46
-1.58
-3.25
-5.36
-7.52
-9.22
-9.92
-9.30
-7.39
-4.50
-1.17
2.14
5.11
7.63
9.73
11.35
12.31
12.38
11.40
9.51
7.13
4.93
3.48
3.02
3.41
4.19
4.89
5.21
5.17
5.01
5.00
5.30
5.85
6.39
6.67
6.52
5.95
5.12
4.22
3.39
2.62
1.76
0.70
-0.63
-2.22
-3.97
-5.83
-7.81
-9.93
-12.16
-14.29
-15.97
-16.78
-16.40
-14.80
-12.27
-9.35
-6.60
-4.41
-2.89
-1.91
-1.20
-0.59
-0.07
0.28
0.35
0.21
0.07
0.26
0.97
2.13
3.40
4.35
4.67
4.35
3.67
3.01
2.60
2.43
2.27
1.79
0.80
-0.62
-2.17
-3.48
-4.30
-4.58
-4.56
-4.60
-5.05
-6.13
-7.81
-9.88
-12.02
-13.86
-15.11
-15.54
-15.07
-13.67
-11.43
-8.54
-5.28
-2.04
0.74
2.71
3.70
3.77
3.21
2.41
1.73
1.41
1.52
2.00
2.67
3.38
3.99
4.45
4.75
4.89
4.88
4.63
4.10
3.25
2.17
1.02
0.03
-0.66
-1.07
-1.38
-1.85
-2.59
-3.58
-4.57
-5.31
-5.68
-5.81
-6.00
-6.63
-7.90
-9.72
-11.78
-13.61
-14.81
-15.09
-14.41
-12.87
-10.68
-8.06
-5.23
-2.41
0.18
2.33
3.87
4.69
4.86
4.55
4.05
3.67
3.65
4.07
4.89
5.94
7.00
7.88
8.46
8.74
8.76
8.55
8.12
7.45
6.57
5.59
4.67
3.98
3.60
3.43
3.25
2.81
1.94
0.70
-0.71
-2.00
-2.99
-3.73
-4.46
-5.46
-6.91
-8.77
-10.74
-12.34
-13.17
-12.98
-11.74
-9.66
-7.01
-4.09
-1.13
1.70
4.22
6.21
7.44
7.78
7.33
6.38
5.41
4.80
4.75
5.18
5.75
6.14
6.10
5.69
5.10
4.59
4.30
4.20
4.04
3.55
2.59
1.21
-0.39
-1.86
-2.99
-3.71
-4.12
-4.43
-4.79
-5.30
-5.99
-6.87
-8.00
-9.45
-11.23
-13.10
-14.63
-15.27
-14.57
-12.44
-9.19
-5.42
-1.84
1.07
3.10
4.35
5.08
5.54
5.87
6.07
6.09
5.91
5.57
5.21
4.96
4.90
4.98
5.05
4.87
4.19
2.90
1.00
-1.34
-3.86
-6.33
-8.59
-10.53
-12.08
-13.14
-13.64
-13.54
-12.97
-12.25
-11.76
-11.89
-12.76
-14.17
-15.62
-16.48
-16.21
-14.56
-11.66
-7.99
-4.13
-0.58
2.30
4.40
5.77
6.53
6.80
6.71
6.38
5.93
5.47
5.10
4.93
4.98
5.20
5.48
5.67
5.69
5.54
5.34
5.21
5.22
5.27
5.12
4.52
3.34
1.66
-0.25
-2.06
-3.60
-4.83
-5.97
-7.28
-8.95
-10.99
-13.25
-15.43
-17.23
-18.35
-18.58
-17.79
-15.98
-13.27
-9.90
-6.20
-2.58
0.59
3.00
4.55
5.31
5.50
5.43
5.40
5.56
5.98
6.55
7.20
7.80
8.30
8.74
9.16
9.58
9.97
10.23
10.29
10.10
9.71
9.18
8.59
7.96
7.29
6.54
5.70
4.80
3.88
2.95
1.96
0.77
-0.77
-2.73
-4.97
-7.07
-8.44
-8.52
-6.99
-3.97
0.02
4.19
7.86
10.64
12.53
13.80
14.71
15.32
15.44
14.79
13.21
10.79
7.91
5.05
2.63
0.87
-0.23
-0.85
-1.25
-1.64
-2.19
-2.93
-3.81
-4.75
-5.67
-6.51
-7.25
-7.87
-8.25
-8.26
-7.83
-7.04
-6.18
-5.70
-6.00
-7.22
-9.10
-11.01
-12.20
-12.07
-10.41
-7.47
-3.82
-0.12
3.11
5.53
7.11
7.96
8.23
8.12
7.79
7.41
7.12
7.07
7.28
7.67
8.02
8.12
7.79
7.06
6.09
5.13
4.35
3.73
3.11
2.23
0.92
-0.78
-2.68
-4.48
-5.97
-7.13
-8.15
-9.35
-10.97
-13.07
-15.42
-17.64
-19.20
-19.68
-18.82
-16.60
-13.27
-9.23
-4.99
-0.99
2.43
5.09
6.94
7.99
8.35
8.16
7.68
7.21
7.01
7.22
7.82
8.55
9.11
9.27
8.92
8.13
7.06
5.81
4.39
2.74
0.82
-1.31
-3.45
-5.40
-6.98
-8.19
-9.25
-10.49
-12.33
-15.02
-18.65
-22.98
-27.52
-31.57
-34.40
-35.35
-34.05
-30.47
-24.91
-17.96
-10.33
-2.78
4.11
9.91
14.45
17.79
20.14
21.86
23.27
24.60
25.89
27.09
28.05
28.64
28.77
28.40
27.55
26.26
24.62
22.77
20.86
19.04
17.39
15.88
14.43
12.87
11.06
8.88
6.35
3.56
0.75
-1.83
-3.97
-5.65
-7.07
-8.63
-10.68
-13.32
-16.25
-18.76
-20.01
-19.37
-16.70
-12.42
-7.34
-2.28
2.16
5.73
8.41
10.33
11.50
11.92
11.57
10.64
9.50
8.63
8.41
8.94
10.06
11.34
12.42
13.06
13.25
13.17
13.01
12.83
12.56
12.03
11.06
9.61
7.76
5.73
3.74
1.96
0.41
-0.99
-2.41
-3.96
-5.72
-7.71
-9.92
-12.27
-14.67
-16.78
-18.17
-18.25
-16.59
-13.07
-8.07
-2.39
2.97
7.16
9.75
10.85
10.91
10.54
10.18
10.07
10.21
10.49
10.86
11.29
11.80
12.38
12.91
13.17
12.98
12.25
11.01
9.41
7.65
5.85
4.08
2.31
0.55
-1.22
-2.93
-4.54
-6.01
-7.44
-8.97
-10.83
-13.20
-16.04
-18.97
-21.34
-22.33
-21.28
-17.99
-12.83
-6.71
-0.74
4.13
7.38
9.01
9.40
9.02
8.25
7.28
6.24
5.26
4.56
4.33
4.67
5.44
6.34
6.98
7.08
6.58
5.63
4.47
3.28
2.06
0.73
-0.90
-2.84
-4.89
-6.70
-7.90
-8.27
-7.91
-7.20
-6.67
-6.83
-7.91
-9.81
-12.11
-14.24
-15.60
-15.79
-14.59
-12.11
-8.64
-4.62
-0.50
3.35
6.68
9.37
11.32
12.52
12.96
12.71
11.95
10.94
10.01
9.43
9.30
9.56
10.00
10.34
10.40
10.08
9.42
8.56
7.60
6.57
5.37
3.85
1.92
-0.35
-2.73
-4.92
-6.63
-7.80
-8.48
-8.85
-9.11
-9.42
-9.91
-10.68
-11.81
-13.18
-14.52
-15.29
-14.87
-12.85
-9.20
-4.39
0.76
5.40
8.90
11.08
12.12
12.39
12.23
11.79
11.07
10.02
8.67
7.23
6.00
5.24
5.06
5.35
5.80
6.10
6.01
5.51
4.82
4.17
3.77
3.64
3.56
3.27
2.54
1.35
-0.07
-1.38
-2.32
-2.84
-3.17
-3.65
-4.57
-6.05
-7.92
-9.85
-11.47
-12.47
-12.61
-11.83
-10.14
-7.66
-4.65
-1.42
1.68
4.34
6.31
7.48
7.85
7.56
6.81
5.84
4.91
4.19
3.75
3.61
3.70
3.95
4.33
4.77
5.21
5.53
5.61
5.36
4.79
4.00
3.13
2.30
1.57
0.89
0.14
-0.87
-2.24
-4.01
-6.09
-8.31
-10.42
-12.18
-13.37
-13.78
-13.28
-11.82
-9.47
-6.43
-3.03
0.33
3.25
5.50
7.02
7.93
8.45
8.76
8.92
8.80
8.24
7.08
5.32
3.16
0.88
-1.22
-3.02
-4.55
-5.96
-7.46
-9.11
-10.82
-12.35
-13.46
-14.03
-14.11
-13.93
-13.74
-13.67
-13.71
-13.76
-13.76
-13.77
-13.92
-14.31
-14.82
-15.09
-14.62
-13.01
-10.21
-6.47
-2.36
1.55
4.86
7.44
9.41
10.96
12.29
13.43
14.32
14.83
14.84
14.36
13.49
12.42
11.33
10.24
9.03
7.46
5.33
2.61
-0.50
-3.66
-6.55
-8.98
-10.97
-12.65
-14.04
-15.12
-15.70
-15.61
-14.86
-13.68
-12.48
-11.72
-11.62
-12.08
-12.66
-12.73
-11.70
-9.35
-5.87
-1.87
1.87
4.73
6.41
7.02
6.93
6.54
6.09
5.69
5.32
5.00
4.81
4.91
5.36
6.13
7.03
7.77
8.13
8.03
7.52
6.83
6.16
5.62
5.18
4.66
3.88
2.77
1.43
0.05
-1.15
-2.12
-3.04
-4.17
-5.76
-7.80
-9.91
-11.54
-12.08
-11.23
-9.11
-6.18
-3.04
-0.21
2.07
3.81
5.09
5.98
6.44
6.32
5.64
4.52
3.28
2.26
1.70
1.65
1.96
2.37
2.65
2.66
2.38
1.86
1.20
0.51
-0.16
-0.78
-1.40
-2.10
-2.92
-3.85
-4.84
-5.86
-6.94
-8.16
-9.54
-10.94
-12.02
-12.27
-11.29
-8.97
-5.57
-1.75
1.82
4.62
6.50
7.63
8.31
8.74
8.88
8.53
7.53
5.94
4.11
2.54
1.66
1.61
2.14
2.76
2.94
2.31
0.86
-1.16
-3.29
-5.12
-6.31
-6.71
-6.30
-5.21
-3.70
-2.12
-0.87
-0.26
-0.34
-0.86
-1.26
-0.85
0.94
4.34
9.08
14.46
19.52
23.30
25.17
24.91
22.80
19.42
15.47
11.56
8.10
5.23
2.93
1.05
-0.57
-2.13
-3.81
-5.80
-8.27
-11.25
-14.59
-17.93
-20.79
-22.79
-23.80
-23.98
-23.80
-23.80
-24.32
-25.41
-26.72
-27.70
-27.78
-26.57
-23.99
-20.22
-15.62
-10.61
-5.57
-0.80
3.49
7.16
10.06
12.09
13.20
13.45
12.99
12.06
10.91
9.74
8.62
7.56
6.55
5.57
4.69
3.93
3.32
2.79
2.28
1.70
1.05
0.35
-0.32
-0.89
-1.31
-1.60
-1.88
-2.30
-2.99
-3.97
-5.00
-5.71
-5.66
-4.54
-2.37
0.48
3.38
5.73
7.18
7.73
7.67
7.37
7.03
6.68
6.16
5.40
4.47
3.67
3.31
3.60
4.45
5.47
6.23
6.39
5.94
5.10
4.19
3.41
2.79
2.21
1.53
0.74
-0.03
-0.64
-1.06
-1.45
-2.10
-3.29
-5.11
-7.34
-9.49
-10.94
-11.15
-9.91
-7.35
-3.95
-0.31
3.10
5.99
8.33
10.18
11.61
12.58
12.95
12.70
11.93
10.94
10.18
9.97
10.39
11.18
11.90
12.10
11.62
10.58
9.28
8.05
7.02
6.07
4.99
3.57
1.85
0.01
-1.66
-3.03
-4.19
-5.46
-7.13
-9.33
-11.81
-14.04
-15.36
-15.26
-13.60
-10.66
-7.06
-3.43
-0.23
2.37
4.46
6.20
7.66
8.74
9.32
9.37
9.06
8.75
8.81
9.44
10.58
11.91
13.10
13.87
14.20
14.30
14.41
14.71
15.13
15.44
15.28
14.44
12.95
11.16
9.57
8.63
8.51
9.01
9.56
9.54
8.52
6.40
3.49
0.31
-2.55
-4.62
-5.62
-5.50
-4.45
-2.86
-1.33
-0.52
-0.95
-2.85
-6.01
-9.90
-13.75
-16.86
-18.80
-19.46
-19.06
-18.00
-16.67
-15.32
-13.99
-12.56
-10.90
-8.96
-6.86
-4.85
-3.22
-2.13
-1.60
-1.59
-2.05
-2.93
-4.09
-5.19
-5.70
-5.07
-3.02
0.19
3.80
6.78
8.24
7.70
5.27
1.44
-3.16
-7.96
-12.58
-16.71
-20.05
-22.32
-23.23
-22.64
-20.57
-17.20
-12.77
-7.63
-2.18
3.04
7.40
10.34
11.43
10.60
8.17
4.77
1.14
-2.02
-4.29
-5.54
-5.89
-5.66
-5.27
-5.15
-5.63
-6.90
-8.88
-11.34
-13.96
-16.36
-18.25
-19.34
-19.42
-18.30
-15.86
-11.99
-6.60
0.42
9.12
19.35
30.68
42.36
53.52
63.55
72.44
80.91
90.14
101.19
114.38
128.92
143.05
154.50
161.32
162.49
158.22
149.87
139.41
128.71
119.13
111.21
104.70
98.79
92.41
84.68
75.19
64.23
52.76
42.10
33.61
28.15
25.81
25.82
26.68
26.73
24.55
19.53
12.02
3.07
-5.97
-14.00
-20.51
-25.61
-29.68
-33.04
-35.61
-37.03
-36.85
-34.76
-30.55
-24.20
-15.74
-5.31
6.83
20.37
35.01
50.46
66.36
81.98
96.06
106.92
112.76
112.18
104.38
89.17
66.75
37.78
3.55
-33.64
-70.54
-103.66
-130.35
-149.71
-162.69
-171.27
-177.08
-180.46
-180.36
-175.13
-163.53
-145.57
-122.48
-96.35
-69.45
-44.09
-22.41
-6.35
2.75
4.58
0.06
-8.90
-20.05
-31.53
-42.31
-52.13
-61.12
-69.43
-77.06
-84.00
-90.45
-96.78
-103.34
-110.21
-117.10
-123.79
-130.56
-138.33
-148.01
-159.21
-169.40
-173.94
-167.59
-146.55
-110.12
-60.91
-3.55
57.07
117.11
173.98
225.66
270.27
306.20
332.89
351.29
363.73
372.68
379.49
383.86
384.26
378.95
366.90
348.25
324.30
297.20
269.43
243.29
220.02
199.30
179.14
156.73
129.73
97.38
60.77
22.16
-16.21
-52.93
-87.58
-120.17
-150.51
-178.02
-202.13
-222.77
-240.60
-256.71
-271.88
-286.11
-298.47
-307.47
-311.64
-310.13
-302.94
-290.89
-275.44
-258.39
-241.52
-226.25
-213.42
-203.08
-194.61
-186.93
-178.87
-169.49
-158.31
-145.33
-131.09
-116.60
-103.21
-92.31
-84.86
-80.91
-79.28
-77.76
-73.81
-65.39
-51.74
-33.48
-12.38
9.41
29.85
47.28
60.34
67.88
68.97
63.16
50.83
33.33
12.83
-8.07
-26.92
-41.91
-52.16
-57.70
-59.39
-58.49
-56.40
-54.23
-52.68
-51.94
-51.78
-51.73
-51.33
-50.24
-48.30
-45.51
-41.86
-37.38
-32.08
-26.14
-19.97
-14.14
-9.20
-5.45
-2.74
-0.57
1.66
4.28
7.13
9.62
11.05
10.95
9.37
6.81
3.94
1.25
-1.15
-3.46
-5.94
-8.71
-11.72
-14.82
-18.02
-21.48
-25.36
-29.56
-33.56
-36.53
-37.66
-36.61
-33.65
-29.57
-25.33
-21.62
-18.65
-16.21
-13.96
-11.63
-9.23
-6.93
-4.86
-3.09
-1.43
0.38
2.58
5.25
8.15
10.89
13.02
14.28
14.65
14.35
13.74
13.08
12.46
11.81
10.90
9.52
7.48
4.67
1.10
-3.10
-7.60
-11.86
-15.27
-17.28
-17.57
-16.12
-13.18
-9.15
-4.46
0.50
5.39
9.91
13.83
17.10
19.85
22.39
25.00
27.86
30.86
33.64
35.80
36.92
36.77
35.26
32.48
28.67
24.17
19.45
14.99
11.19
8.32
6.39
5.15
4.18
2.95
1.03
-1.81
-5.52
-9.67
-13.54
-16.31
-17.27
-16.08
-12.82
-7.98
-2.30
3.51
8.85
13.34
16.80
19.20
20.62
21.27
21.36
21.21
21.04
21.10
21.53
22.33
23.46
24.68
25.68
26.16
25.89
24.76
22.85
20.31
17.32
14.05
10.64
7.13
3.57
-0.04
-3.79
-7.75
-11.91
-15.97
-19.39
-21.45
-21.57
-19.57
-15.77
-10.88
-5.70
-0.81
3.56
7.45
10.93
13.92
16.18
17.41
17.60
17.03
16.34
16.24
17.19
19.25
22.02
24.80
26.84
27.56
26.72
24.36
20.76
16.30
11.33
6.17
1.05
-3.85
-8.42
-12.62
-16.46
-19.92
-22.93
-25.23
-26.45
-26.22
-24.33
-20.85
-16.20
-11.02
-5.95
-1.53
2.03
4.74
6.77
8.36
9.70
10.87
11.93
12.91
13.94
15.17
16.72
18.60
20.58
22.30
23.32
23.38
22.40
20.60
18.37
16.04
13.82
11.65
9.26
6.35
2.70
-1.67
-6.53
-11.47
-16.02
-19.75
-22.23
-23.21
-22.47
-19.98
-15.86
-10.51
-4.50
1.44
6.61
10.51
12.98
14.21
14.65
14.83
15.18
15.91
16.96
18.15
19.26
20.12
20.71
21.05
21.20
21.16
20.81
20.05
18.79
17.07
15.02
12.86
10.74
8.79
7.01
5.29
3.46
1.34
-1.24
-4.37
-8.02
-11.95
-15.69
-18.62
-20.05
-19.46
-16.68
-12.01
-6.17
-0.16
5.00
8.55
10.20
10.19
9.19
8.01
7.36
7.57
8.54
9.86
11.06
11.90
12.44
12.94
13.60
14.39
14.96
14.83
13.70
11.60
8.89
6.12
3.69
1.70
-0.07
-1.95
-4.17
-6.76
-9.54
-12.31
-15.00
-17.57
-20.03
-22.16
-23.57
-23.69
-22.07
-18.55
-13.44
-7.44
-1.45
3.70
7.53
9.94
11.20
11.79
12.14
12.59
13.30
14.24
15.38
16.63
17.95
19.30
20.58
21.65
22.33
22.44
21.91
20.79
19.22
17.31
15.19
12.85
10.30
7.55
4.73
2.07
-0.25
-2.20
-4.02
-6.16
-9.03
-12.80
-17.07
-21.01
-23.51
-23.67
-21.15
-16.26
-9.93
-3.29
2.73
7.60
11.23
13.86
15.74
17.07
17.92
18.31
18.38
18.39
18.67
19.47
20.82
22.46
23.92
24.74
24.61
23.55
21.85
19.98
18.33
17.08
16.18
15.35
14.30
12.87
11.07
9.10
7.17
5.44
3.91
2.44
0.89
-0.88
-2.90
-5.16
-7.76
-10.80
-14.28
-17.95
-21.13
-22.95
-22.54
-19.56
-14.39
-7.99
-1.60
3.79
7.70
10.27
11.93
13.16
14.20
15.07
15.70
16.13
16.53
17.20
18.31
19.83
21.47
22.83
23.61
23.69
23.22
22.49
21.73
21.05
20.36
19.47
18.23
16.61
14.69
12.64
10.63
8.76
7.09
5.63
4.32
3.10
1.82
0.39
-1.31
-3.31
-5.61
-8.22
-11.07
-13.97
-16.50
-18.09
-18.13
-16.23
-12.45
-7.33
-1.73
3.42
7.50
10.28
11.94
12.83
13.29
13.53
13.60
13.51
13.36
13.30
13.57
14.32
15.55
17.03
18.41
19.36
19.65
19.30
18.47
17.42
16.35
15.31
14.22
12.97
11.50
9.88
8.26
6.82
5.63
4.68
3.83
2.88
1.72
0.34
-1.17
-2.74
-4.41
-6.36
-8.81
-11.81
-15.06
-17.89
-19.49
-19.20
-16.79
-12.62
-7.52
-2.44
1.83
4.94
6.93
8.11
8.78
9.09
9.01
8.48
7.59
6.65
6.17
6.58
8.00
10.09
12.20
13.55
13.67
12.55
10.65
8.70
7.34
6.84
7.08
7.61
7.95
7.80
7.10
5.94
4.50
2.89
1.11
-0.83
-2.93
-5.11
-7.31
-9.56
-11.92
-14.46
-17.05
-19.29
-20.61
-20.46
-18.61
-15.24
-10.93
-6.43
-2.38
0.79
3.01
4.41
5.23
5.70
5.97
6.15
6.31
6.52
6.89
7.50
8.40
9.50
10.60
11.43
11.72
11.35
10.41
9.21
8.09
7.31
6.86
6.50
5.87
4.71
3.05
1.17
-0.50
-1.67
-2.32
-2.73
-3.29
-4.35
-6.02
-8.21
-10.71
-13.23
-15.56
-17.45
-18.59
-18.67
-17.45
-14.92
-11.35
-7.25
-3.24
0.18
2.67
4.21
4.96
5.21
5.30
5.48
5.92
6.67
7.68
8.81
9.91
10.79
11.31
11.41
11.18
10.71
10.17
9.63
9.08
8.43
7.56
6.43
5.07
3.54
1.93
0.31
-1.24
-2.66
-3.90
-5.03
-6.21
-7.63
-9.48
-11.73
-14.09
-16.02
-16.92
-16.35
-14.19
-10.75
-6.63
-2.53
0.97
3.53
5.14
5.99
6.37
6.52
6.63
6.73
6.86
7.06
7.35
7.75
8.19
8.51
8.55
8.21
7.56
6.80
6.17
5.79
5.59
5.34
4.78
3.79
2.43
0.90
-0.56
-1.83
-2.93
-4.00
-5.26
-6.86
-8.83
-11.06
-13.25
-14.94
-15.69
-15.20
-13.46
-10.77
-7.62
-4.53
-1.89
0.21
1.79
2.92
3.62
3.86
3.71
3.34
3.07
3.18
3.83
4.95
6.27
7.50
8.47
9.09
9.40
9.43
9.16
8.52
7.42
5.91
4.13
2.32
0.66
-0.76
-2.02
-3.26
-4.66
-6.34
-8.27
-10.26
-12.00
-13.09
-13.26
-12.40
-10.62
-8.19
-5.40
-2.54
0.19
2.66
4.74
6.32
7.32
7.71
7.61
7.25
6.84
6.58
6.49
6.54
6.61
6.64
6.64
6.65
6.69
6.69
6.53
6.08
5.26
4.13
2.84
1.61
0.61
-0.09
-0.57
-1.01
-1.63
-2.59
-3.94
-5.61
-7.35
-8.83
-9.69
-9.63
-8.59
-6.69
-4.23
-1.57
0.95
3.15
4.98
6.45
7.59
8.42
8.93
9.13
9.09
9.00
9.04
9.38
10.05
10.94
11.87
12.64
13.13
13.34
13.30
13.03
12.46
11.50
10.11
8.34
6.40
4.59
3.10
2.03
1.26
0.60
-0.09
-0.89
-1.74
-2.62
-3.59
-4.76
-6.27
-8.08
-9.93
-11.34
-11.80
-10.97
-8.84
-5.73
-2.23
1.06
3.75
5.71
7.06
8.05
8.86
9.54
10.01
10.22
10.26
10.31
10.61
11.25
12.15
13.04
13.60
13.70
13.35
12.78
12.27
11.97
11.83
11.64
11.11
10.05
8.45
6.52
4.56
2.90
1.70
0.96
0.49
0.06
-0.50
-1.28
-2.27
-3.46
-4.88
-6.59
-8.59
-10.67
-12.40
-13.22
-12.66
-10.52
-7.07
-2.94
1.05
4.24
6.32
7.38
7.80
7.99
8.24
8.58
8.88
9.00
8.90
8.71
8.60
8.70
8.92
9.06
8.85
8.16
7.06
5.82
4.74
4.01
3.59
3.21
2.57
1.47
-0.04
-1.70
-3.16
-4.19
-4.74
-4.93
-5.03
-5.25
-5.73
-6.52
-7.57
-8.79
-10.07
-11.21
-11.94
-12.00
-11.23
-9.65
-7.42
-4.90
-2.42
-0.27
1.37
2.39
2.80
2.71
2.29
1.80
1.46
1.36
1.47
1.64
1.71
1.60
1.35
1.04
0.74
0.47
0.18
-0.18
-0.58
-0.96
-1.24
-1.44
-1.64
-2.00
-2.62
-3.50
-4.49
-5.36
-5.92
-6.11
-6.02
-5.87
-5.90
-6.28
-7.09
-8.23
-9.51
-10.71
-11.62
-12.14
-12.20
-11.81
-10.94
-9.58
-7.72
-5.43
-2.93
-0.53
1.41
2.61
3.01
2.77
2.23
1.75
1.56
1.66
1.95
2.28
2.59
2.92
3.31
3.75
4.14
4.31
4.16
3.68
3.06
2.48
2.09
1.86
1.67
1.30
0.66
-0.25
-1.26
-2.18
-2.89
-3.35
-3.63
-3.82
-4.02
-4.29
-4.66
-5.16
-5.80
-6.61
-7.53
-8.48
-9.35
-9.95
-10.15
-9.80
-8.83
-7.25
-5.23
-3.05
-1.03
0.56
1.60
2.14
2.37
2.46
2.50
2.47
2.26
1.83
1.20
0.52
0.01
-0.17
0.03
0.53
1.14
1.69
2.13
2.49
2.89
3.39
3.95
4.41
4.59
4.38
3.90
3.40
3.20
3.48
4.21
5.10
5.82
6.12
5.92
5.36
4.59
3.66
2.46
0.78
-1.48
-4.19
-6.89
-9.03
-10.14
-10.01
-8.84
-7.07
-5.21
-3.66
-2.61
-2.08
-1.97
-2.17
-2.60
-3.18
-3.83
-4.46
-4.94
-5.20
-5.19
-4.88
-4.28
-3.35
-2.01
-0.19
2.17
5.03
8.17
11.21
13.65
15.03
15.11
13.95
11.91
9.54
7.44
5.99
5.33
5.29
5.48
5.53
5.15
4.30
3.16
2.03
1.21
0.84
0.94
1.39
2.04
2.81
3.65
4.53
5.42
6.27
7.04
7.64
7.99
7.97
7.44
6.26
4.36
1.81
-1.11
-3.95
-6.13
-7.18
-6.88
-5.42
-3.39
-1.56
-0.70
-1.28
-3.38
-6.68
-10.62
-14.62
-18.25
-21.30
-23.72
-25.56
-26.94
-27.95
-28.64
-29.03
-29.13
-28.92
-28.35
-27.36
-25.85
-23.74
-21.02
-17.83
-14.44
-11.22
-8.54
-6.67
-5.59
-5.11
-4.83
-4.43
-3.72
-2.75
-1.80
-1.17
-1.04
-1.43
-2.16
-3.05
-3.97
-4.90
-5.90
-6.97
-8.03
-8.98
-9.79
-10.57
-11.47
-12.56
-13.52
-13.74
-12.42
-9.00
-3.48
3.52
10.88
17.48
22.53
25.78
27.50
28.17
28.27
28.13
27.91
27.69
27.52
27.40
27.17
26.55
25.13
22.60
18.83
14.07
8.88
4.01
0.16
-2.22
-3.12
-2.86
-2.01
-1.19
-0.85
-1.22
-2.25
-3.71
-5.21
-6.33
-6.71
-6.04
-4.18
-1.25
2.41
6.21
9.46
11.59
12.26
11.48
9.60
7.14
4.58
2.23
0.21
-1.55
-3.08
-4.35
-5.21
-5.44
-4.83
-3.30
-0.92
2.03
5.13
7.87
9.77
10.46
9.78
7.75
4.56
0.55
-3.81
-7.95
-11.23
-13.16
-13.47
-12.32
-10.19
-7.75
-5.62
-4.16
-3.46
-3.42
-3.89
-4.73
-5.83
-7.01
-8.04
-8.68
-8.80
-8.42
-7.67
-6.72
-5.67
-4.43
-2.83
-0.70
2.05
5.35
9.06
12.97
16.90
20.73
24.33
27.59
30.41
32.69
34.36
35.34
35.53
34.82
33.10
30.36
26.73
22.52
18.14
13.98
10.28
7.06
4.14
1.33
-1.47
-4.18
-6.52
-8.28
-9.39
-10.08
-10.72
-11.74
-13.35
-15.49
-17.85
-20.02
-21.78
-23.16
-24.44
-26.00
-27.97
-30.16
-32.04
-32.98
-32.57
-30.80
-28.15
-25.34
-23.01
-21.55
-20.95
-20.94
-21.24
-21.68
-22.31
-23.26
-24.62
-26.32
-28.13
-29.76
-30.95
-31.55
-31.48
-30.69
-29.09
-26.64
-23.40
-19.56
-15.47
-11.55
-8.16
-5.53
-3.72
-2.63
-2.08
-1.82
-1.62
-1.26
-0.67
0.14
1.00
1.70
2.01
1.80
0.99
-0.36
-2.08
-3.90
-5.38
-6.08
-5.66
-4.06
-1.57
1.25
3.79
5.58
6.48
6.63
6.40
6.18
6.24
6.68
7.39
8.20
8.90
9.38
9.64
9.73
9.75
9.67
9.40
8.81
7.81
6.50
5.13
4.02
3.40
3.23
3.25
3.05
2.31
1.00
-0.61
-2.09
-3.06
-3.39
-3.25
-3.05
-3.14
-3.69
-4.67
-5.81
-6.88
-7.68
-8.13
-8.15
-7.63
-6.42
-4.42
-1.72
1.41
4.54
7.20
9.07
10.04
10.24
9.92
9.38
8.83
8.43
8.21
8.16
8.25
8.42
8.62
8.83
9.01
9.13
9.14
8.93
8.41
7.54
6.37
5.07
3.84
2.81
1.96
1.15
0.25
-0.78
-1.79
-2.61
-3.09
-3.28
-3.43
-3.86
-4.82
-6.27
-7.86
-9.08
-9.42
-8.62
-6.78
-4.32
-1.77
0.43
2.02
3.05
3.67
4.11
4.53
5.01
5.65
6.56
7.84
9.57
11.62
13.65
15.18
15.73
15.08
13.29
10.80
8.16
5.90
4.27
3.24
2.54
1.79
0.72
-0.75
-2.50
-4.28
-5.83
-6.94
-7.53
-7.68
-7.61
-7.57
-7.81
-8.51
-9.67
-11.12
-12.58
-13.70
-14.17
-13.75
-12.38
-10.14
-7.28
-4.18
-1.24
1.22
3.08
4.42
5.39
6.21
6.94
7.57
8.01
8.25
8.33
8.37
8.46
8.58
8.60
8.34
7.68
6.62
5.34
4.05
2.94
2.05
1.33
0.60
-0.32
-1.51
-2.93
-4.39
-5.68
-6.66
-7.36
-7.92
-8.58
-9.46
-10.48
-11.34
-11.64
-11.08
-9.56
-7.31
-4.70
-2.13
0.18
2.13
3.74
5.06
6.04
6.58
6.61
6.20
5.56
4.99
4.77
4.99
5.55
6.21
6.68
6.81
6.54
5.99
5.32
4.63
3.98
3.29
2.48
1.48
0.30
-0.96
-2.17
-3.20
-3.97
-4.47
-4.78
-5.04
-5.40
-5.95
-6.72
-7.63
-8.58
-9.44
-10.00
-10.08
-9.48
-8.11
-6.04
-3.52
-0.96
1.27
2.85
3.73
4.00
3.89
3.69
3.58
3.64
3.87
4.17
4.43
4.57
4.53
4.31
4.00
3.65
3.29
2.93
2.52
2.04
1.49
0.92
0.39
-0.10
-0.64
-1.32
-2.20
-3.23
-4.31
-5.29
-6.14
-6.90
-7.65
-8.46
-9.21
-9.66
-9.52
-8.64
-7.08
-5.15
-3.23
-1.64
-0.49
0.30
0.94
1.61
2.37
3.19
3.96
4.56
4.93
5.10
5.16
5.24
5.47
5.86
6.34
6.69
6.68
6.20
5.27
4.05
2.76
1.54
0.44
-0.56
-1.50
-2.35
-3.07
-3.64
-4.16
-4.85
-5.94
-7.51
-9.43
-11.28
-12.55
-12.82
-11.93
-10.02
-7.49
-4.81
-2.39
-0.44
1.01
2.04
2.74
3.17
3.33
3.27
3.02
2.73
2.53
2.57
2.90
3.41
3.94
4.26
4.24
3.90
3.37
2.86
2.50
2.28
2.03
1.48
0.52
-0.81
-2.24
-3.43
-4.10
-4.25
-4.13
-4.12
-4.56
-5.56
-6.91
-8.19
-8.96
-8.92
-8.02
-6.42
-4.43
-2.32
-0.33
1.47
3.02
4.31
5.29
5.89
6.06
5.84
5.36
4.80
4.34
3.97
3.65
3.27
2.81
2.41
2.25
2.44
2.90
3.37
3.51
3.12
2.18
0.90
-0.43
-1.56
-2.43
-3.15
-3.93
-4.98
-6.42
-8.20
-10.06
-11.64
-12.50
-12.33
-11.06
-8.84
-6.04
-3.10
-0.37
1.98
3.88
5.32
6.28
6.77
6.83
6.56
6.16
5.86
5.79
5.99
6.31
6.62
6.77
6.79
6.72
6.61
6.42
5.98
5.13
3.77
2.01
0.08
-1.69
-3.04
-3.90
-4.39
-4.80
-5.44
-6.52
-8.10
-10.03
-12.01
-13.71
-14.79
-15.01
-14.22
-12.38
-9.60
-6.04
-2.05
1.98
5.65
8.60
10.66
11.81
12.20
12.12
11.83
11.57
11.44
11.42
11.45
11.46
11.46
11.49
11.54
11.57
11.42
10.94
10.01
8.66
7.02
5.28
3.60
2.02
0.51
-1.01
-2.55
-4.09
-5.62
-7.13
-8.76
-10.58
-12.59
-14.57
-16.12
-16.74
-16.08
-14.00
-10.71
-6.68
-2.51
1.22
4.12
6.03
7.07
7.55
7.80
8.11
8.54
9.05
9.48
9.77
10.00
10.27
10.68
11.15
11.49
11.45
10.94
10.09
9.13
8.29
7.61
6.92
5.97
4.53
2.58
0.31
-1.93
-3.82
-5.17
-6.05
-6.74
-7.57
-8.84
-10.59
-12.59
-14.38
-15.38
-15.10
-13.33
-10.19
-6.10
-1.63
2.68
6.50
9.70
12.24
14.12
15.28
15.62
15.20
14.21
13.05
12.14
11.75
11.94
12.49
13.09
13.43
13.33
12.75
11.76
10.48
9.04
7.51
5.92
4.22
2.41
0.49
-1.39
-3.04
-4.26
-4.92
-5.08
-4.90
-4.61
-4.41
-4.52
-5.12
-6.41
-8.45
-11.09
-13.76
-15.59
-15.60
-13.08
-7.90
-0.64
7.60
15.57
22.28
27.27
30.59
32.56
33.55
33.75
33.27
32.17
30.68
29.20
28.15
27.86
28.39
29.47
30.69
31.60
31.85
31.29
29.88
27.70
24.82
21.33
17.35
13.07
8.71
4.47
0.49
-3.23
-6.78
-10.31
-13.96
-17.87
-22.12
-26.78
-31.80
-36.96
-41.80
-45.63
-47.61
-46.99
-43.33
-36.65
-27.47
-16.69
-5.41
5.31
14.64
22.06
27.39
30.70
32.33
32.70
32.32
31.66
31.01
30.51
30.10
29.63
28.99
28.14
27.12
26.07
25.04
24.04
22.98
21.75
20.31
18.62
16.71
14.56
12.21
9.78
7.54
5.85
4.95
4.77
4.80
4.26
2.38
-1.19
-6.17
-11.72
-16.78
-20.47
-22.46
-22.96
-22.57
-21.94
-21.45
-21.19
-20.99
-20.65
-20.13
-19.56
-19.22
-19.28
-19.73
-20.32
-20.63
-20.39
-19.54
-18.30
-17.07
-16.24
-16.02
-16.47
-17.45
-18.78
-20.28
-21.81
-23.26
-24.54
-25.57
-26.31
-26.73
-26.86
-26.79
-26.66
-26.66
-26.86
-27.15
-27.26
-26.74
-25.20
-22.51
-18.86
-14.75
-10.78
-7.45
-5.02
-3.45
-2.56
-2.06
-1.76
-1.50
-1.20
-0.83
-0.39
0.01
0.24
0.15
-0.28
-0.88
-1.29
-1.03
0.29
2.75
6.05
9.56
12.52
14.36
14.80
13.95
12.11
9.60
6.62
3.18
-0.80
-5.43
-10.75
-16.66
-22.89
-28.88
-33.86
-36.96
-37.54
-35.47
-31.36
-26.37
-21.82
-18.72
-17.34
-17.21
-17.42
-17.07
-15.71
-13.46
-10.87
-8.53
-6.77
-5.47
-4.18
-2.31
0.58
4.57
9.37
14.47
19.19
22.92
25.19
25.71
24.47
21.76
18.18
14.58
11.83
10.55
10.86
12.31
13.95
14.68
13.56
10.15
4.62
-2.29
-9.61
-16.34
-21.74
-25.46
-27.47
-28.04
-27.55
-26.36
-24.72
-22.74
-20.44
-17.80
-14.91
-11.95
-9.23
-7.05
-5.59
-4.78
-4.30
-3.66
-2.44
-0.40
2.44
5.83
9.46
13.09
16.64
20.07
23.29
26.06
27.96
28.54
27.42
24.45
19.69
13.43
6.19
-1.24
-7.85
-12.51
-14.28
-12.66
-7.89
-0.87
7.09
14.68
21.03
25.85
29.39
32.10
34.41
36.49
38.26
39.52
40.11
40.03
39.51
39.03
39.27
40.99
44.78
50.69
58.06
65.41
70.77
72.35
69.09
61.11
49.65
36.62
23.95
13.04
4.44
-1.94
-6.59
-9.97
-12.33
-13.66
-13.90
-12.95
-10.80
-7.48
-2.97
2.72
9.45
16.83
24.11
30.31
34.40
35.69
34.05
29.92
24.19
17.81
11.56
5.90
0.99
-3.18
-6.64
-9.36
-11.25
-12.32
-12.69
-12.57
-12.22
-11.76
-11.23
-10.71
-10.51
-11.22
-13.68
-18.55
-26.02
-35.65
-46.29
-56.48
-64.90
-70.64
-73.53
-73.92
-72.55
-70.15
-67.20
-63.90
-60.13
-55.72
-50.58
-44.86
-38.96
-33.39
-28.61
-24.83
-21.97
-19.74
-17.79
-15.89
-13.97
-12.11
-10.43
-8.96
-7.63
-6.30
-4.90
-3.36
-1.60
0.62
3.72
8.12
13.94
20.72
27.27
32.02
33.52
31.01
24.80
16.17
6.85
-1.52
-7.90
-12.04
-14.27
-15.19
-15.33
-15.03
-14.40
-13.49
-12.36
-11.13
-9.94
-8.78
-7.55
-6.04
-4.18
-2.13
-0.33
0.68
0.59
-0.48
-1.89
-2.74
-2.25
-0.09
3.50
7.84
12.08
15.55
17.89
18.99
18.92
17.77
15.68
12.83
9.49
6.03
2.75
-0.11
-2.49
-4.46
-6.13
-7.56
-8.83
-9.93
-10.91
-11.81
-12.73
-13.65
-14.51
-15.11
-15.20
-14.64
-13.35
-11.45
-9.16
-6.72
-4.34
-2.18
-0.32
1.21
2.41
3.33
4.02
4.54
4.91
5.15
5.20
5.09
4.83
4.54
4.36
4.32
4.38
4.38
4.15
3.60
2.82
2.05
1.57
1.52
1.82
2.17
2.24
1.72
0.63
-0.84
-2.33
-3.51
-4.20
-4.42
-4.31
-4.04
-3.69
-3.23
-2.57
-1.65
-0.48
0.82
2.06
3.09
3.77
4.08
4.06
3.80
3.40
2.94
2.46
2.00
1.59
1.27
1.10
1.09
1.23
1.45
1.66
1.75
1.67
1.39
0.97
0.47
-0.08
-0.72
-1.54
-2.64
-4.00
-5.50
-6.84
-7.68
-7.72
-6.84
-5.15
-2.98
-0.73
1.26
2.83
4.00
4.88
5.54
5.91
5.87
5.33
4.33
3.12
2.01
1.30
1.04
1.11
1.24
1.16
0.77
0.12
-0.59
-1.17
-1.55
-1.77
-1.95
-2.25
-2.75
-3.48
-4.43
-5.51
-6.63
-7.67
-8.47
-8.87
-8.73
-7.99
-6.70
-5.04
-3.22
-1.52
-0.12
0.92
1.64
2.17
2.65
3.11
3.52
3.75
3.66
3.22
2.54
1.83
1.30
1.01
0.83
0.53
-0.08
-1.05
-2.20
-3.30
-4.12
-4.64
-4.97
-5.33
-5.85
-6.56
-7.34
-8.03
-8.53
-8.78
-8.77
-8.50
-7.93
-7.04
-5.81
-4.27
-2.49
-0.60
1.18
2.63
3.49
3.70
3.36
2.75
2.24
2.12
2.42
2.98
3.50
3.75
3.66
3.35
2.97
2.65
2.43
2.24
2.03
1.75
1.38
0.91
0.28
-0.55
-1.60
-2.83
-4.15
-5.40
-6.39
-6.94
-6.89
-6.15
-4.80
-3.05
-1.23
0.34
1.48
2.16
2.52
2.67
2.64
2.33
1.66
0.65
-0.47
-1.34
-1.65
-1.32
-0.49
0.45
1.13
1.31
0.94
0.17
-0.82
-1.91
-3.01
-4.13
-5.27
-6.45
-7.68
-9.00
-10.35
-11.61
-12.55
-12.85
-12.31
-10.88
-8.74
-6.27
-3.90
-2.03
-0.82
-0.19
0.24
0.98
2.57
5.32
9.21
13.79
18.39
22.16
24.44
24.87
23.46
20.58
16.74
12.48
8.18
4.09
0.35
-2.89
-5.50
-7.35
-8.48
-9.07
-9.51
-10.08
-10.89
-11.71
-12.05
-11.41
-9.57
-6.71
-3.42
-0.42
1.74
2.89
3.19
3.03
2.78
2.64
2.64
2.73
2.89
3.16
3.60
4.22
4.90
5.42
5.53
5.12
4.18
2.92
1.61
0.53
-0.19
-0.61
-0.97
-1.60
-2.77
-4.52
-6.61
-8.57
-9.85
-10.01
-8.92
-6.68
-3.59
-0.03
3.62
7.05
10.00
12.26
13.73
14.37
14.33
13.81
13.04
12.28
11.65
11.21
10.91
10.63
10.24
9.64
8.78
7.65
6.35
5.01
3.73
2.59
1.51
0.39
-0.94
-2.55
-4.46
-6.59
-8.78
-10.86
-12.57
-13.61
-13.64
-12.35
-9.69
-5.86
-1.34
3.18
7.13
10.19
12.33
13.71
14.51
14.79
14.51
13.66
12.42
11.18
10.41
10.47
11.39
12.87
14.35
15.29
15.34
14.49
13.02
11.38
9.94
8.86
8.00
7.05
5.62
3.50
0.66
-2.74
-6.43
-10.17
-13.65
-16.58
-18.60
-19.39
-18.75
-16.77
-13.80
-10.37
-6.99
-3.98
-1.49
0.46
1.87
2.71
2.99
2.86
2.57
2.50
2.91
3.88
5.28
6.79
8.05
8.74
8.67
7.73
6.04
3.81
1.37
-0.95
-2.96
-4.65
-6.20
-7.93
-10.09
-12.80
-15.90
-19.01
-21.60
-23.09
-23.00
-21.12
-17.52
-12.67
-7.31
-2.31
1.57
3.93
4.83
4.72
4.20
3.89
4.13
4.97
6.20
7.45
8.35
8.60
8.11
7.01
5.65
4.57
4.36
5.50
8.10
11.83
16.01
19.72
22.21
23.13
22.58
21.02
19.01
16.96
14.99
13.05
11.00
8.88
6.90
5.41
4.75
5.15
6.57
8.81
11.56
14.46
17.22
19.63
21.52
22.74
23.18
22.73
21.35
19.11
16.20
12.93
9.75
7.13
5.46
4.88
5.24
6.05
6.71
6.66
5.67
3.87
1.64
-0.54
-2.34
-3.64
-4.49
-5.00
-5.29
-5.43
-5.57
-5.90
-6.70
-8.09
-9.97
-11.93
-13.25
-13.15
-10.95
-6.31
0.64
9.28
18.59
27.39
34.61
39.54
42.08
42.61
41.84
40.40
38.51
35.87
31.81
25.74
17.50
7.44
-3.59
-14.64
