1574667741.00
64.000000
-0.00
-0.00
-0.00
-0.00
-0.00
-0.00
-0.00
-0.00
-0.00
-0.00
0.00
0.01
0.01
-0.00
-0.03
-0.05
-0.05
0.00
0.13
0.36
0.66
1.01
1.37
1.72
2.06
2.40
2.79
3.24
3.80
4.42
5.06
5.66
6.20
6.68
7.15
7.68
8.31
9.14
10.09
11.04
11.88
12.56
13.14
13.76
14.65
15.96
17.91
20.32
22.90
25.38
27.58
29.57
31.68
34.32
37.81
42.54
48.15
54.10
59.83
64.97
69.58
74.14
79.34
85.71
93.76
103.00
112.62
121.73
129.77
136.75
143.30
150.75
157.77
166.64
177.95
191.79
206.97
220.57
228.25
225.36
208.53
176.87
132.76
80.05
23.07
-34.94
-92.44
-149.16
-205.23
-260.37
-313.74
-363.88
-409.83
-450.91
-486.50
-515.72
-537.20
-549.18
-549.90
-538.28
-514.08
-478.51
-433.67
-382.19
-326.71
-269.47
-212.20
-156.16
-102.39
-51.74
-5.20
36.35
72.28
102.28
126.52
145.49
159.90
170.47
177.81
182.32
184.30
183.96
181.58
177.51
172.16
165.95
159.20
152.18
145.02
137.80
130.56
123.34
116.21
109.24
102.51
96.05
89.91
84.10
78.63
73.51
68.76
64.38
60.38
56.76
53.53
50.66
48.16
46.03
44.27
42.88
41.84
41.15
40.76
40.61
40.59
40.57
40.40
39.90
38.90
37.22
34.76
31.46
27.34
22.41
16.85
10.86
4.67
-1.43
-7.19
-12.37
-16.77
-20.27
-22.80
-24.36
-25.03
-24.90
-24.12
-22.82
-21.14
-19.21
-17.10
-14.87
-12.55
-10.16
-7.72
-5.24
-2.71
-0.11
2.54
5.26
8.06
10.95
13.89
16.85
19.82
22.80
25.82
28.91
32.12
35.51
39.16
43.01
47.03
51.18
55.49
59.97
64.63
69.52
74.69
80.24
86.00
91.88
97.82
103.78
109.74
115.68
121.60
127.54
133.53
139.31
144.63
149.30
153.09
155.70
156.78
155.81
152.07
146.92
140.85
134.16
127.06
119.71
112.24
104.77
97.42
90.35
83.75
77.47
71.44
65.63
60.03
54.65
49.48
44.55
39.92
35.67
31.64
27.78
24.06
20.48
17.09
13.92
11.04
8.51
6.40
4.63
3.13
1.86
0.76
-0.18
-1.01
-1.73
-2.32
-2.79
-3.17
-3.48
-3.75
-3.96
-4.11
-4.18
-4.18
-4.08
-3.88
-3.59
-3.24
-2.83
-2.37
-1.90
-1.43
-0.98
-0.61
-0.33
-0.20
-0.20
-0.34
-0.58
-0.87
-1.20
-1.57
-1.99
-2.51
-3.18
-4.03
-5.04
-6.20
-7.44
-8.68
-9.89
-11.07
-12.22
-13.39
-14.62
-15.85
-17.05
-18.12
-19.01
-19.79
-20.57
-21.59
-23.04
-25.05
-27.57
-30.41
-33.32
-36.09
-38.68
-41.29
-44.28
-48.01
-52.68
-58.21
-64.26
-70.32
-76.03
-81.31
-86.47
-92.11
-98.87
-107.14
-116.85
-127.58
-138.64
-149.47
-159.86
-170.01
-180.53
-192.32
-206.40
-223.70
-244.60
-268.39
-292.91
-314.73
-330.03
-335.81
-330.97
-316.71
-296.05
-272.62
-249.47
-228.39
-209.91
-193.70
-179.20
-165.91
-153.55
-141.95
-131.07
-120.93
-111.69
-103.61
-96.97
-92.13
-89.32
-88.58
-89.55
-91.42
-93.08
-93.42
-91.77
-88.11
-83.18
-78.01
-73.48
-69.96
-67.15
-64.28
-60.45
-55.01
-47.71
-38.83
-28.94
-18.76
-8.92
0.14
8.29
15.61
22.37
28.89
35.37
41.90
48.42
54.72
60.56
65.63
69.74
72.77
74.73
75.70
75.73
74.85
73.11
70.59
67.52
64.18
60.95
58.19
56.06
54.54
53.33
52.02
50.24
47.75
44.56
40.82
36.66
32.16
27.32
22.19
17.08
12.44
8.83
6.67
6.03
6.65
8.09
10.08
12.53
15.59
19.37
23.69
28.01
31.53
33.48
33.59
32.28
30.56
29.70
30.56
33.24
36.94
40.36
42.17
41.63
38.73
34.12
28.79
23.69
19.55
16.74
15.23
14.57
13.91
12.24
8.76
3.19
-4.03
-11.86
-19.04
-24.44
-27.28
-27.27
-24.52
-19.50
-13.04
-6.21
-0.12
4.37
6.91
7.77
7.73
7.74
8.55
10.47
13.28
16.50
19.52
21.87
23.28
23.74
23.53
23.16
23.26
24.45
27.08
31.04
35.80
40.57
44.67
47.88
50.45
52.94
55.86
59.17
62.28
64.18
63.97
61.30
56.67
51.11
45.82
41.69
39.10
37.90
37.60
37.37
36.00
31.88
23.39
9.45
-9.63
-31.84
-53.87
-72.16
-84.17
-89.17
-88.31
-83.79
-77.92
-72.36
-67.99
-65.03
-63.49
-63.29
-64.15
-65.66
-67.05
-67.58
-66.69
-64.26
-60.60
-56.40
-52.52
-49.69
-48.27
-47.92
-47.55
-45.54
-40.27
-30.85
-17.57
-1.89
14.11
28.72
41.29
52.41
63.44
75.48
88.69
101.97
113.52
121.78
126.22
127.61
127.50
127.47
128.43
130.23
132.04
132.73
131.41
127.61
121.18
112.06
100.22
85.77
69.11
51.13
33.01
15.87
0.31
-13.86
-27.44
-41.36
-55.98
-70.61
-83.59
-92.80
-96.53
-94.21
-86.46
-74.80
-60.94
-46.20
-31.39
-16.86
-2.81
10.50
22.84
34.09
44.44
54.49
65.06
76.93
90.45
105.18
119.71
131.83
138.83
138.19
128.30
108.91
81.27
47.91
12.00
-23.16
-54.79
-80.85
-100.25
-112.83
-119.21
-120.62
-118.55
-114.56
-109.93
-105.44
-101.37
-97.53
-93.46
-88.76
-83.18
-76.62
-69.18
-61.09
-52.68
-44.43
-36.82
-30.32
-25.17
-21.25
-18.11
-15.12
-11.72
-7.66
-3.21
0.98
4.09
5.46
4.82
2.38
-1.28
-5.39
-9.25
-12.39
-14.60
-15.94
-16.62
-16.92
-17.07
-17.24
-17.42
-17.57
-17.57
-17.42
-17.23
-17.18
-17.45
-18.06
-18.88
-19.71
-20.25
-20.25
-19.53
-17.94
-15.43
-12.13
-8.37
-4.54
-1.03
1.90
4.26
6.12
7.61
8.83
9.84
10.74
11.66
12.76
14.06
15.41
16.55
17.24
17.42
17.19
16.76
16.21
15.36
13.86
11.50
8.40
5.05
2.20
0.45
-0.11
0.20
0.74
0.92
0.55
-0.18
-0.76
-0.66
0.38
2.32
4.81
7.28
9.16
9.99
9.68
8.53
7.14
6.23
6.29
7.47
9.47
11.70
13.60
14.78
15.07
14.51
13.20
11.22
8.68
5.70
2.36
-1.30
-5.22
-9.34
-13.42
-17.09
-19.98
-21.85
-22.72
-22.77
-22.29
-21.38
-20.03
-18.19
-16.04
-13.99
-12.70
-12.69
-14.16
-16.71
-19.51
-21.57
-22.08
-20.71
-17.60
-13.28
-8.50
-4.02
-0.40
2.09
3.55
4.35
4.96
5.76
6.94
8.52
10.35
12.23
13.92
15.13
15.63
15.43
14.95
15.12
17.11
21.79
29.12
37.91
46.03
51.29
52.35
49.27
43.54
37.33
32.67
30.65
31.21
33.42
36.04
37.95
38.50
37.45
34.84
30.91
26.05
20.89
16.18
12.62
10.65
10.21
10.76
11.44
11.42
10.21
7.79
4.54
1.03
-2.20
-4.90
-7.04
-8.84
-10.48
-12.17
-14.02
-16.11
-18.60
-21.62
-25.26
-29.37
-33.61
-37.41
-40.21
-41.69
-41.93
-41.27
-40.12
-38.76
-37.25
-35.66
-34.15
-32.98
-32.36
-32.22
-32.04
-31.10
-28.78
-24.87
-19.74
-14.08
-8.58
-3.66
0.48
3.76
6.12
7.44
7.80
7.54
7.22
7.43
8.48
10.39
12.91
15.78
18.84
22.06
25.34
28.44
31.07
32.89
33.87
34.27
34.51
34.92
35.53
36.05
36.04
35.17
33.38
30.89
28.01
24.88
21.49
17.66
13.34
8.75
4.41
0.93
-1.25
-2.11
-2.07
-1.81
-1.96
-2.89
-4.57
-6.71
-9.00
-11.29
-13.70
-16.49
-19.79
-23.46
-27.17
-30.62
-33.79
-37.11
-41.19
-46.42
-52.58
-58.66
-63.31
-65.42
-64.70
-61.89
-58.43
-55.74
-54.59
-54.86
-55.52
-55.23
-52.75
-47.37
-38.97
-28.06
-15.53
-2.58
9.48
19.55
27.03
32.02
35.20
37.57
39.92
42.57
45.30
47.68
49.39
50.32
50.61
50.26
49.11
46.85
43.32
38.75
33.73
29.07
25.30
22.43
20.04
17.44
14.11
9.92
5.09
0.06
-4.70
-8.95
-12.51
-15.32
-17.29
-18.32
-18.34
-17.35
-15.52
-13.09
-10.29
-7.15
-3.50
0.97
6.59
13.42
21.27
29.51
37.34
44.00
48.92
51.88
52.82
51.87
49.31
45.51
41.13
36.98
33.84
32.24
32.12
32.96
33.87
34.04
32.94
30.50
27.01
23.03
19.19
16.14
14.32
14.00
15.09
17.29
20.24
23.70
27.63
32.06
36.83
41.43
45.01
46.78
46.37
44.03
40.62
37.19
34.64
33.38
33.29
33.98
34.89
35.63
36.03
36.17
36.27
36.53
37.02
37.63
38.06
38.01
37.29
35.96
34.18
32.12
29.81
27.12
23.89
20.13
15.99
11.81
7.83
4.04
0.21
-4.00
-8.81
-14.10
-19.41
-24.27
-28.41
-31.91
-35.23
-38.89
-43.38
-48.90
-55.38
-62.50
-69.75
-76.46
-81.83
-85.08
-85.60
-83.16
-78.05
-71.04
-63.19
-55.58
-48.98
-43.81
-40.09
-37.57
-35.80
-34.38
-32.98
-31.49
-29.98
-28.70
-28.00
-28.12
-29.12
-30.82
-32.82
-34.69
-36.08
-36.81
-36.92
-36.57
-36.02
-35.58
-35.51
-35.93
-36.70
-37.39
-37.42
-36.21
-33.43
-29.15
-23.75
-17.75
-11.58
-5.42
0.86
7.49
14.74
22.72
31.33
40.34
49.49
58.48
67.07
75.01
82.14
88.29
93.33
97.07
99.36
100.05
99.13
96.73
93.09
88.58
83.50
78.03
72.15
65.82
59.02
51.92
44.84
38.17
32.21
27.08
22.67
18.82
15.36
12.18
9.22
6.38
3.45
0.17
-3.60
-7.85
-12.39
-16.97
-21.48
-25.92
-30.35
-34.66
-38.54
-41.51
-43.18
-43.43
-42.57
-41.11
-39.56
-38.02
-36.21
-33.71
-30.25
-26.00
-21.48
-17.31
-13.84
-10.91
-7.96
-4.38
0.02
4.86
9.18
11.81
11.82
8.97
3.75
-2.51
-7.99
-10.71
-9.05
-2.39
8.55
21.86
34.95
45.49
52.19
55.17
55.50
54.62
53.47
52.21
50.58
48.46
46.33
45.42
47.12
52.33
60.94
71.74
82.91
92.56
99.29
102.36
101.75
98.13
92.73
87.18
83.01
80.88
79.90
77.39
69.58
52.99
26.08
-9.83
-50.82
-91.74
-127.78
-155.54
-173.23
-180.21
-176.45
-162.32
-138.99
-108.87
-75.66
-43.76
-17.27
1.17
10.91
13.13
10.19
4.61
-1.58
-7.30
-12.33
-17.06
-22.15
-28.24
-35.73
-44.61
-54.35
-63.87
-71.68
-76.25
-76.63
-72.74
-65.37
-55.93
-45.94
-36.67
-28.97
-23.17
-19.32
-17.00
-15.57
-14.19
-12.11
-9.02
-5.05
-0.73
3.38
6.99
10.12
12.99
15.66
17.98
19.58
20.21
19.86
18.75
17.25
15.60
13.97
12.50
11.47
11.33
12.50
15.12
18.88
23.08
26.74
29.02
29.34
27.60
24.00
19.02
13.18
7.04
1.05
-4.46
-9.25
-13.20
-16.29
-18.51
-19.87
-20.38
-20.05
-18.89
-17.00
-14.57
-11.91
-9.44
-7.63
-6.75
-6.92
-8.01
-9.71
-11.58
-13.17
-14.13
-14.35
-13.92
-13.10
-12.27
-11.69
-11.52
-11.67
-11.94
-12.15
-12.22
-12.31
-12.77
-13.92
-16.02
-19.12
-22.98
-27.16
-31.09
-34.24
-36.14
-36.58
-35.64
-33.63
-31.04
-28.50
-26.44
-25.03
-24.14
-23.41
-22.47
-21.20
-19.71
-18.31
-17.24
-16.54
-16.07
-15.59
-15.01
-14.43
-14.04
-14.01
-14.33
-14.81
-15.27
-15.62
-15.98
-16.63
-17.85
-19.79
-22.41
-25.44
-28.53
-31.37
-33.82
-35.90
-37.76
-39.58
-41.46
-43.39
-45.27
-46.98
-48.30
-48.95
-48.45
-46.16
-41.33
-33.43
-22.34
-8.71
6.14
20.40
32.15
39.84
42.65
40.71
35.09
27.63
20.39
15.20
13.11
14.14
17.45
21.69
25.67
28.68
30.74
32.22
33.61
35.08
36.35
36.95
36.45
34.80
32.43
30.12
28.64
28.42
29.37
30.81
31.88
31.90
30.73
28.96
27.78
28.54
32.15
38.72
47.32
56.49
64.67
70.82
74.69
76.60
77.21
77.02
76.33
75.23
73.79
72.14
70.41
68.70
66.88
64.81
62.40
59.81
57.40
55.65
54.97
55.60
57.46
60.17
63.05
65.12
65.28
62.45
55.84
45.12
30.49
12.77
-6.75
-26.43
-44.52
-59.41
-70.05
-76.08
-77.91
-76.58
-73.34
-69.35
-65.38
-61.89
-58.94
-56.55
-54.66
-53.21
-52.09
-51.10
-50.02
-48.71
-47.14
-45.38
-43.55
-41.75
-40.09
-38.65
-37.47
-36.45
-35.36
-33.81
-31.58
-28.77
-25.92
-23.92
-23.62
-25.34
-28.76
-32.88
-36.53
-38.82
-39.42
-38.68
-37.42
-36.58
-36.87
-38.47
-40.96
-43.40
-44.61
-43.67
-40.30
-35.07
-29.27
-24.44
-21.83
-21.82
-23.89
-26.82
-29.17
-29.88
-28.59
-25.84
-22.87
-21.38
-22.77
-27.52
-34.56
-41.29
-44.26
-40.41
-28.59
-10.42
9.96
27.31
37.22
37.84
30.54
19.37
9.58
6.05
12.14
29.20
56.58
91.85
131.01
169.01
200.50
221.05
228.26
222.50
206.80
185.80
164.36
146.19
133.11
125.10
120.80
118.21
115.32
110.40
102.26
90.45
75.56
59.10
43.28
30.24
21.36
16.72
15.22
15.08
14.65
12.91
9.49
4.37
-2.62
-11.99
-24.34
-39.96
-58.35
-78.21
-97.67
-114.86
-128.23
-136.93
-140.89
-140.95
-138.85
-137.07
-138.23
-144.29
-155.68
-171.06
-187.61
-202.04
-211.63
-214.99
-212.19
-204.36
-193.03
-179.80
-166.09
-153.20
-142.25
-133.97
-128.22
-123.70
-118.05
-108.40
-92.17
-67.91
-35.50
3.94
48.66
96.64
145.80
193.85
238.27
276.36
305.86
325.62
335.91
338.24
334.43
325.57
311.38
290.49
261.48
224.34
181.36
136.92
96.23
63.61
40.97
27.39
19.82
14.47
8.29
-0.17
-10.86
-22.80
-35.03
-47.26
-59.90
-73.53
-88.26
-103.05
-115.82
-124.17
-126.34
-122.15
-113.15
-101.98
-91.18
-82.12
-74.73
-67.89
-60.38
-51.63
-42.01
-32.52
-24.13
-17.24
-11.54
-6.21
-0.44
6.30
13.95
21.99
29.55
35.56
38.92
38.52
33.39
23.07
7.81
-11.12
-31.64
-51.13
-67.12
-77.77
-82.16
-80.45
-73.65
-63.45
-51.85
-40.76
-31.64
-25.21
-21.35
-19.38
-18.45
-17.86
-17.33
-16.88
-16.65
-16.65
-16.75
-16.68
-16.16
-15.02
-13.24
-11.03
-8.73
-6.71
-5.40
-5.05
-5.74
-7.26
-9.19
-10.98
-12.05
-12.02
-10.74
-8.30
-5.06
-1.52
1.78
4.45
6.32
7.43
7.98
8.18
8.10
7.78
7.21
6.46
5.69
5.13
4.89
4.95
5.20
5.48
5.70
5.81
5.76
5.48
5.02
4.70
5.09
6.91
10.58
15.90
21.88
27.00
29.80
29.46
26.17
21.00
15.41
10.69
7.57
6.08
5.77
6.08
6.47
6.58
6.12
4.87
2.65
-0.61
-4.70
-9.31
-14.02
-18.61
-23.29
-28.56
-35.09
-43.30
-53.11
-63.89
-74.62
-84.37
-92.58
-99.27
-104.90
-110.14
-115.55
-121.51
-128.24
-135.86
-144.55
-154.46
-165.66
-178.01
-191.11
-204.35
-217.01
-228.36
-237.65
-244.17
-247.07
-245.49
-238.41
-224.83
-203.91
-175.19
-138.76
-95.47
-46.92
4.64
56.44
105.64
149.59
186.31
214.60
234.28
245.90
250.59
249.69
244.51
236.23
225.87
214.30
202.27
190.33
178.83
167.92
157.62
147.89
138.70
130.00
121.64
113.44
105.11
96.41
87.20
77.56
67.79
58.34
49.72
42.33
36.43
32.09
29.33
28.12
28.44
30.14
32.85
35.83
38.19
38.99
37.69
34.20
29.03
22.93
16.74
11.01
6.03
1.82
-1.66
-4.46
-6.67
-8.32
-9.56
-10.49
-11.17
-11.55
-11.52
-11.03
-10.13
-9.02
-8.00
-7.28
-6.85
-6.55
-6.06
-5.11
-3.66
-1.87
-0.05
1.51
2.63
3.42
4.10
4.92
6.00
7.29
8.65
9.98
11.31
12.71
14.27
15.90
17.33
18.20
18.23
17.35
15.77
13.93
12.19
10.79
9.72
8.78
7.81
6.73
5.56
4.39
3.27
2.17
1.03
-0.19
-1.40
-2.44
-3.19
-3.68
-4.11
-4.82
-6.11
-8.11
-10.78
-13.84
-17.08
-20.36
-23.77
-27.51
-31.79
-36.73
-42.14
-47.65
-52.74
-56.94
-59.97
-61.83
-62.70
-62.92
-62.83
-62.86
-63.47
-65.05
-67.75
-71.19
-74.53
-76.64
-76.80
-75.07
-72.57
-71.05
-72.18
-76.81
-84.89
-95.84
-109.40
-125.83
-145.43
-167.58
-189.91
-208.43
-218.66
-217.15
-202.73
-176.95
-143.50
-107.18
-72.90
-44.82
-25.73
-16.58
-16.00
-20.11
-22.93
-17.72
0.89
34.89
81.61
134.29
184.19
223.64
248.63
259.78
261.37
258.89
256.46
255.50
255.03
253.18
248.93
242.79
236.59
232.37
231.47
234.21
240.28
249.12
260.25
273.10
286.60
299.04
308.25
312.15
309.43
299.98
285.04
266.88
248.36
232.24
220.54
214.11
212.35
213.46
215.01
214.74
211.29
204.35
194.37
181.85
167.01
149.70
129.95
108.60
87.34
68.50
54.10
44.93
39.96
36.58
31.09
19.43
-1.65
-33.64
-75.09
-120.66
-161.51
-187.34
-190.12
-167.76
-125.94
-76.75
-34.54
-10.85
-11.09
-34.05
-74.41
-125.98
-184.07
-245.81
-308.92
-370.33
-425.55
-469.46
-497.83
-508.50
-501.94
-480.54
-447.45
-405.57
-357.19
-304.10
-248.44
-193.34
-142.66
-100.50
-69.99
-52.44
-47.03
-51.21
-61.36
-73.79
-85.81
-96.20
-105.25
-113.81
-121.62
-125.88
-121.21
-101.88
-65.43
-15.78
36.52
78.04
98.45
95.62
76.76
54.96
43.07
48.79
73.19
112.76
162.44
217.48
273.08
323.26
361.22
381.53
383.15
370.84
353.24
338.59
330.49
326.49
320.03
304.46
276.58
238.07
194.83
154.56
124.13
107.42
104.23
110.06
117.57
119.42
111.46
94.88
75.84
62.52
61.05
72.34
91.61
110.98
123.05
123.92
113.93
96.10
73.66
48.27
19.66
-13.34
-51.42
-93.94
-138.95
-183.96
-226.53
-264.59
-296.37
-320.25
-335.00
-340.25
-337.08
-328.12
-316.87
-306.41
-298.14
-291.17
-282.66
-269.30
-249.01
-222.20
-191.97
-162.97
-139.63
-124.52
-117.69
-117.29
-120.91
-126.59
-133.45
-141.40
-150.47
-160.26
-169.83
-177.97
-183.48
-185.30
-182.50
-174.37
-160.79
-142.57
-121.70
-100.99
-83.72
-72.54
-69.17
-74.11
-87.01
-107.30
-134.73
-169.62
-212.46
-262.93
-318.44
-373.73
-421.47
-454.30
-467.37
-460.07
-436.20
-402.14
-364.31
-327.07
-292.14
-259.51
-228.84
-200.57
-175.82
-155.56
-139.69
-126.68
-114.40
-101.04
-86.01
-70.00
-54.69
-41.72
-31.86
-24.71
-18.88
-12.51
-4.14
6.83
19.98
34.09
47.69
59.68
69.67
78.13
86.15
94.92
105.38
117.77
131.55
145.65
158.82
170.20
179.60
187.65
195.46
204.16
214.28
225.44
236.43
245.78
252.29
255.71
256.85
257.30
258.93
263.43
272.17
286.02
305.00
327.53
350.16
367.83
375.42
369.81
351.47
324.56
295.24
269.07
248.83
234.02
222.16
211.00
199.97
190.16
182.89
178.05
173.38
165.38
151.20
130.31
105.08
79.91
59.24
45.72
39.44
38.35
39.56
40.76
40.88
39.95
38.41
36.50
34.04
30.67
26.17
20.75
14.86
9.07
3.93
0.14
-1.38
0.57
7.14
18.78
34.59
52.16
67.83
78.01
80.46
75.36
64.97
52.41
40.10
28.63
17.17
4.64
-8.71
-20.60
-27.41
-25.82
-14.51
5.08
29.11
52.74
71.38
81.81
82.67
74.54
59.74
41.82
24.72
11.79
4.74
3.25
5.12
7.10
6.07
0.20
-10.33
-23.43
-35.90
-44.81
-48.72
-48.35
-46.18
-45.45
-48.77
-57.28
-70.45
-86.58
-103.66
-120.03
-134.81
-147.98
-160.20
-172.27
-184.74
-197.49
-209.56
-219.29
-224.72
-224.15
-216.59
-202.03
-181.48
-156.70
-129.90
-103.27
-78.60
-56.87
-38.32
-22.66
-9.36
2.02
11.90
20.74
29.21
38.05
47.83
58.68
70.31
82.17
93.72
104.70
114.97
124.28
131.93
136.78
137.48
133.14
123.82
110.79
96.26
82.70
72.09
65.26
61.68
59.87
57.92
54.25
48.06
39.58
29.79
20.10
11.87
6.02
2.90
2.26
3.59
6.36
10.13
14.46
18.68
21.65
21.97
18.39
10.44
-1.10
-14.17
-25.99
-33.95
-36.44
-33.39
-26.22
-17.12
-8.19
-0.75
4.90
9.00
11.89
13.72
14.51
14.61
14.92
16.85
21.67
30.05
41.72
55.65
70.49
85.10
98.65
110.34
119.14
123.76
122.95
116.00
103.21
86.05
66.96
48.90
34.84
27.17
27.26
35.04
48.49
63.72
75.55
78.82
70.06
48.59
16.72
-21.07
-59.62
-94.35
-122.06
-141.11
-151.17
-153.19
-149.19
-142.09
-135.27
-131.81
-133.73
-141.52
-154.04
-168.78
-182.11
-189.96
-188.57
-175.54
-150.71
-116.39
-76.66
-36.34
0.18
29.50
49.37
58.68
57.79
48.94
36.27
24.99
19.68
22.51
32.31
45.21
56.52
62.75
62.92
58.36
51.43
44.04
36.90
29.73
22.20
14.70
8.38
4.53
3.77
5.49
8.17
10.06
10.06
8.06
4.65
0.62
-3.66
-8.28
-13.47
-19.25
-25.28
-31.02
-36.05
-40.29
-43.87
-46.89
-49.20
-50.47
-50.35
-48.82
-46.17
-42.78
-38.91
-34.49
-29.26
-23.00
-15.82
-8.10
-0.42
6.85
13.61
20.11
26.68
33.36
39.73
45.08
48.64
50.12
49.86
48.66
47.46
46.83
46.74
46.76
46.40
45.45
44.07
42.64
41.52
40.86
40.76
41.40
43.07
45.99
49.90
54.09
57.50
59.25
59.17
57.81
56.23
55.41
55.79
57.07
58.46
59.17
58.91
58.15
57.92
59.33
62.99
68.70
75.40
81.62
86.05
87.97
87.45
85.00
81.13
76.04
69.64
61.91
53.33
44.97
38.16
33.93
32.53
33.24
34.74
35.74
35.49
33.91
31.35
27.99
23.45
16.76
6.73
-7.38
-25.27
-45.47
-65.57
-82.99
-95.79
-103.19
-105.79
-105.28
-104.05
-104.87
-110.49
-123.11
-143.85
-172.01
-204.81
-237.81
-265.97
-285.05
-292.76
-289.20
-276.34
-256.99
-233.83
-208.82
-183.16
-157.64
-132.97
-109.85
-88.88
-70.37
-54.16
-39.78
-26.80
-15.25
-5.85
0.25
2.17
0.12
-4.29
-8.33
-9.17
-5.04
4.01
16.18
28.75
39.26
46.44
50.41
52.26
53.11
53.37
52.57
49.76
44.19
35.94
26.01
15.93
7.10
0.25
-4.61
-7.98
-10.27
-11.60
-11.68
-10.26
-7.34
-3.41
0.67
4.09
6.52
8.30
10.37
13.83
19.40
27.07
36.14
45.52
54.15
61.44
67.32
72.19
76.60
81.03
85.70
90.43
94.61
97.27
97.21
93.36
85.15
72.70
56.96
39.45
21.80
5.40
-8.82
-20.60
-30.17
-38.12
-45.07
-51.47
-57.38
-62.50
-66.25
-68.03
-67.50
-64.76
-60.30
-54.87
-49.27
-44.21
-40.26
-37.73
-36.60
-36.44
-36.50
-35.76
-33.30
-28.51
-21.34
-12.34
-2.67
6.21
12.75
15.72
14.51
9.32
0.98
-9.45
-21.11
-33.66
-47.13
-61.50
-76.12
-89.46
-99.14
-102.53
-97.63
-83.77
-61.99
-34.85
-5.69
22.14
45.82
63.39
73.71
76.50
72.38
62.98
50.90
39.25
31.07
28.49
32.12
40.96
52.81
64.91
74.69
80.23
80.73
76.63
69.46
61.52
55.11
51.77
51.95
54.87
59.07
62.92
65.04
64.48
60.66
53.34
42.82
30.12
16.91
5.11
-3.71
-9.07
-11.66
-12.92
-14.14
-15.65
-16.42
-14.55
-8.10
3.92
20.97
40.97
60.93
77.72
88.97
93.47
91.21
83.12
70.54
54.93
37.61
19.81
2.80
-11.97
-22.83
-28.14
-26.62
-17.80
-2.29
18.23
41.30
64.07
83.73
97.72
104.06
101.49
89.71
69.27
41.30
7.21
-31.65
-73.93
-117.88
-160.92
-199.27
-228.44
-244.39
-244.91
-230.63
-204.88
-172.65
-138.85
-106.91
-78.38
-53.27
-30.97
-10.71
8.38
27.45
47.83
70.29
93.88
115.23
129.02
129.83
114.54
84.11
43.60
0.59
-37.52
-65.90
-83.33
-91.66
-94.21
-93.98
-92.62
-90.48
-87.18
-82.63
-77.36
-72.35
-68.45
-65.74
-63.53
-60.76
-56.73
-51.50
-45.88
-40.90
-37.19
-34.69
-32.64
-29.91
-25.28
-17.67
-6.03
10.68
33.40
62.55
97.53
136.42
176.26
213.71
246.12
272.26
292.25
307.04
317.41
323.25
323.41
316.30
300.66
276.31
244.33
206.69
165.73
123.72
82.84
45.17
12.88
-12.07
-28.44
-36.18
-36.70
-32.40
-25.71
-18.19
-9.89
0.30
13.69
30.67
50.26
70.49
89.48
106.52
122.38
138.69
156.93
177.69
200.61
224.90
249.64
273.71
295.49
312.52
321.97
321.57
310.57
290.05
262.56
230.98
197.59
163.52
128.84
92.94
54.90
13.66
-31.77
-82.26
-138.41
-200.58
-268.84
-342.38
-418.42
-491.60
-554.72
-600.99
-626.72
-633.01
-624.82
-608.17
-586.74
-560.34
-526.04
-481.27
-426.54
-366.21
-306.67
-253.38
-208.88
-172.63
-142.71
-117.76
-97.73
-83.27
-74.51
-70.17
-67.62
-63.74
-56.14
-43.98
-28.13
-10.52
6.60
21.49
33.30
42.15
48.69
53.70
57.74
60.96
63.22
64.22
63.78
61.98
59.19
56.00
52.93
50.31
48.11
46.16
44.12
41.83
39.21
36.34
33.26
29.97
26.46
22.70
18.76
14.73
10.68
6.64
2.60
-1.39
-5.13
-8.20
-10.15
-10.54
-9.10
-5.94
-1.45
3.64
8.52
12.54
15.39
17.16
18.32
19.39
20.77
22.60
24.65
26.63
28.21
29.19
29.53
29.34
28.74
27.87
26.79
25.44
23.68
21.40
18.63
15.55
12.55
10.01
8.10
6.77
5.73
4.57
2.94
0.68
-2.17
-5.43
-8.77
-11.63
-13.39
-13.45
-11.49
-7.59
-2.30
3.56
9.10
13.59
16.62
18.13
18.27
17.37
15.81
13.98
12.27
10.94
10.12
9.72
9.55
9.36
9.05
8.68
8.40
8.41
8.76
9.30
9.65
9.45
8.46
6.71
4.44
1.95
-0.58
-3.17
-5.95
-9.01
-12.29
-15.59
-18.64
-21.17
-22.97
-23.72
-23.06
-20.57
-15.99
-9.40
-1.37
7.14
15.03
21.37
25.58
27.52
27.37
25.51
22.36
18.30
13.67
8.80
4.03
-0.23
-3.57
-5.66
-6.35
-5.76
-4.32
-2.67
-1.51
-1.28
-2.09
-3.67
-5.61
-7.51
-9.10
-10.29
-11.15
-11.76
-12.17
-12.44
-12.64
-12.82
-12.88
-12.55
-11.47
-9.32
-6.06
-1.96
2.51
6.95
11.15
15.09
18.67
21.50
22.93
22.32
19.41
14.63
8.99
3.83
0.27
-1.18
-0.83
0.33
0.96
-0.04
-3.16
-8.03
-13.79
-19.49
-24.42
-28.25
-30.87
-32.16
-32.11
-30.96
-29.31
-27.90
-26.95
-25.78
-23.09
-17.83
-10.32
-2.40
3.42
5.46
4.05
1.33
-0.05
1.52
5.73
10.93
15.51
19.14
22.91
28.52
36.92
47.68
59.13
69.55
77.81
83.74
87.57
89.37
89.10
87.09
84.30
82.11
81.07
79.67
74.46
61.99
41.57
17.15
-3.84
-14.11
-10.88
2.07
15.91
21.12
12.17
-10.37
-40.90
-72.28
-98.85
-117.77
-128.64
-132.10
-129.04
-120.40
-107.32
-90.95
-71.89
-50.08
-25.19
2.31
30.62
56.91
78.34
93.41
102.36
106.61
107.59
105.96
101.62
94.53
85.48
76.23
68.71
64.11
62.27
61.85
61.32
59.72
56.99
53.56
49.77
45.66
41.25
36.94
33.89
33.62
37.40
45.30
55.65
64.88
68.23
61.16
41.28
9.84
-28.18
-65.42
-94.80
-112.11
-117.32
-113.97
-107.07
-100.84
-97.22
-95.66
-94.19
-90.59
-83.54
-73.12
-61.00
-50.02
-43.26
-42.46
-46.74
-52.32
-53.95
-47.43
-31.94
-10.61
10.89
27.15
35.33
35.90
31.57
25.30
18.91
12.85
7.20
2.71
1.15
4.63
14.20
28.94
46.03
61.71
72.66
77.20
75.60
69.85
62.67
56.68
53.61
54.00
57.25
61.80
65.57
66.51
63.30
55.91
45.70
34.88
25.52
18.69
14.05
10.25
5.81
0.02
-6.84
-13.87
-20.22
-25.62
-30.27
-34.35
-37.50
-38.88
-37.61
-33.49
-27.44
-21.23
-16.78
-15.21
-16.49
-19.58
-23.09
-26.06
-28.24
-29.86
-31.22
-32.23
-32.38
-31.04
-27.82
-22.85
-16.76
-10.40
-4.59
0.13
3.64
6.19
8.24
10.13
11.96
13.44
14.34
14.63
14.72
15.17
16.19
17.41
17.89
16.67
13.43
8.78
4.07
0.59
-0.93
-0.60
0.87
2.87
5.19
7.94
11.24
14.91
18.42
21.20
22.86
23.34
22.88
21.83
20.41
18.78
17.00
15.19
13.51
12.01
10.59
8.83
6.27
2.56
-2.26
-7.55
-12.33
-15.49
-16.31
-14.79
-11.61
-7.97
-5.02
-3.49
-3.45
-4.52
-6.04
-7.44
-8.39
-8.84
-8.97
-9.09
-9.50
-10.41
-11.86
-13.70
-15.66
-17.44
-18.75
-19.42
-19.34
-18.58
-17.44
-16.47
-16.42
-17.86
-21.00
-25.37
-29.95
-33.49
-35.05
-34.40
-32.04
-28.96
-26.18
-24.28
-23.26
-22.66
-21.91
-20.55
-18.49
-15.95
-13.29
-10.94
-9.32
-8.75
-9.48
-11.54
-14.70
-18.33
-21.63
-23.77
-24.14
-22.57
-19.36
-15.24
-11.18
-8.20
-7.09
-8.16
-11.11
-15.18
-19.37
-22.94
-25.70
-28.00
-30.50
-33.82
-38.29
-43.82
-50.08
-56.66
-63.27
-69.91
-76.89
-84.61
-93.28
-102.49
-110.95
-116.61
-117.24
-111.07
-97.36
-76.50
-49.79
-18.90
14.56
49.14
83.46
116.09
145.41
169.89
188.53
201.34
209.56
215.23
220.23
225.28
229.43
230.58
226.70
217.14
203.01
186.43
169.12
151.30
131.78
109.22
83.69
57.34
33.68
15.85
4.94
-0.39
-2.99
-5.73
-10.27
-16.89
-25.03
-34.14
-43.94
-54.27
-64.60
-73.91
-80.87
-84.46
-84.40
-81.34
-76.57
-71.52
-67.28
-64.27
-62.24
-60.45
-57.93
-53.82
-47.63
-39.45
-29.82
-19.53
-9.42
-0.16
7.91
14.90
21.28
27.66
34.35
41.21
47.49
52.22
54.70
54.88
53.35
50.92
48.08
44.68
40.14
33.90
25.95
17.05
8.34
0.75
-5.48
-10.87
-16.32
-22.47
-29.29
-36.09
-41.85
-45.66
-47.13
-46.45
-44.11
-40.83
-37.22
-33.83
-31.12
-29.30
-28.34
-27.84
-27.28
-26.23
-24.50
-22.20
-19.60
-16.89
-14.10
-11.21
-8.22
-5.35
-2.91
-1.23
-0.39
-0.34
-0.85
-1.73
-2.96
-4.72
-7.29
-10.85
-15.35
-20.39
-25.32
-29.46
-32.31
-33.82
-34.16
-33.59
-32.23
-29.95
-26.61
-22.26
-17.25
-12.20
-7.73
-4.18
-1.58
0.32
1.74
2.81
3.46
3.58
3.15
2.30
1.35
0.62
0.26
0.21
0.18
-0.27
-1.56
-3.86
-7.08
-10.82
-14.51
-17.60
-19.76
-21.00
-21.74
-22.76
-25.03
-29.38
-36.23
-45.34
-55.78
-66.13
-74.78
-80.44
-82.49
-81.19
-77.70
-73.75
-71.17
-71.31
-74.55
-80.09
-86.21
-90.85
-92.35
-90.11
-84.71
-77.75
-71.06
-66.09
-63.42
-62.72
-63.13
-63.82
-64.35
-64.92
-66.17
-68.78
-73.00
-78.10
-82.08
-81.91
-74.03
-55.25
-23.52
21.29
77.08
139.72
203.69
262.92
311.87
346.32
363.97
364.69
350.23
323.62
288.21
247.02
202.40
156.28
110.65
68.02
31.18
2.49
-17.03
-28.52
-35.11
-41.01
-50.02
-64.35
-84.47
-109.79
-139.58
-173.56
-211.55
-252.45
-293.22
-328.80
-353.10
-360.84
-349.33
-319.21
-273.91
-218.22
-156.89
-94.03
-33.30
21.55
66.99
100.65
122.60
135.72
144.64
153.30
162.75
170.39
171.56
162.38
142.36
115.04
86.45
62.15
44.80
33.43
24.52
14.02
-0.74
-20.28
-43.33
-67.86
-92.03
-114.65
-135.09
-152.97
-167.77
-178.79
-185.38
-187.21
-184.46
-177.74
-167.80
-155.36
-141.19
-126.12
-110.89
-95.67
-79.56
-60.25
-34.62
0.08
44.89
98.43
157.16
216.53
272.28
321.61
363.62
398.91
428.80
454.34
475.57
491.24
499.19
497.29
484.38
460.75
427.84
387.80
343.12
296.75
252.46
214.59
187.09
171.81
167.36
169.39
172.45
172.55
168.77
163.17
158.95
158.29
161.06
165.30
168.58
169.53
168.07
164.73
159.43
150.90
137.18
116.77
89.79
58.42
26.19
-3.43
-28.50
-49.36
-68.39
-88.78
-113.04
-141.72
-173.16
-204.26
-231.71
-253.44
-269.38
-281.45
-292.76
-306.74
-326.38
-353.39
-387.33
-424.71
-458.83
-480.91
-482.72
-459.84
-413.98
-353.01
-288.38
-231.18
-188.49
-161.76
-147.75
-141.01
-136.57
-131.37
-124.27
-115.06
-103.43
-88.43
-68.87
-44.16
-14.98
16.27
46.30
72.08
92.18
107.13
118.77
128.83
137.66
143.96
145.68
141.51
131.99
119.75
108.52
101.68
101.02
106.23
115.36
125.65
134.51
140.03
141.34
138.38
131.78
122.49
111.55
99.65
86.67
71.49
52.26
27.27
-3.85
-39.32
-75.37
-107.85
-133.91
-153.38
-168.22
-180.91
-192.41
-201.35
-204.91
-200.96
-189.77
-174.17
-158.04
-143.98
-131.94
-119.56
-104.13
-84.69
-62.91
-42.40
-26.52
-16.72
-12.07
-10.30
-9.59
-9.73
-12.07
-18.15
-28.25
-40.46
-51.28
-57.06
-55.71
-47.62
-35.39
-22.64
-12.43
-6.16
-3.37
-2.43
-1.55
0.09
2.10
3.28
2.63
0.15
-3.12
-5.81
-7.55
-9.62
-14.87
-26.52
-46.57
-74.62
-107.76
-141.46
-170.89
-192.04
-202.15
-199.78
-184.91
-159.23
-126.40
-91.73
-61.02
-38.84
-26.98
-23.98
-25.74
-27.22
-24.23
-14.74
0.91
20.47
40.69
58.37
71.26
78.69
81.69
82.72
84.83
90.63
101.39
116.66
134.58
152.64
168.64
181.29
190.42
196.47
199.91
200.79
198.88
194.12
187.25
179.81
173.85
170.98
171.69
175.13
179.78
184.08
186.88
187.26
183.79
174.16
155.45
125.51
84.69
36.90
-10.99
-51.43
-79.05
-92.65
-94.99
-90.71
-83.47
-74.24
-61.75
-44.74
-24.10
-3.70
11.24
16.89
13.30
4.77
-1.83
-0.07
13.42
37.85
68.67
99.20
122.63
133.88
130.58
113.39
85.41
50.79
13.29
-24.91
-63.58
-104.07
-148.60
-199.13
-256.34
-318.47
-380.95
-436.74
-478.08
-498.96
-497.42
-476.47
-442.70
-403.66
-364.79
-328.03
-292.08
-254.34
-213.04
-168.54
-123.38
-81.27
-45.89
-19.84
-4.20
1.52
-0.97
-9.45
-21.63
-35.60
-49.70
-62.23
-71.31
-75.05
-72.35
-63.38
-49.75
-33.65
-16.68
0.96
20.41
43.17
70.02
100.11
131.36
161.23
187.77
210.05
228.05
242.23
253.33
262.70
272.29
284.23
299.57
317.12
333.01
341.56
337.27
316.87
280.65
232.28
177.47
122.30
72.01
30.45
0.02
-18.24
-24.97
-22.61
-15.12
-6.89
-1.20
0.97
1.36
3.34
10.33
23.95
43.10
64.27
82.67
93.87
94.83
84.47
63.62
34.71
1.38
-31.91
-60.58
-80.77
-89.99
-87.70
-75.28
-55.61
-32.30
-9.30
9.68
21.50
24.03
16.60
0.25
-22.44
-48.05
-73.18
-95.22
-112.58
-124.55
-130.88
-131.63
-127.11
-118.21
-106.44
-93.74
-82.06
-72.76
-66.21
-61.89
-58.65
-55.27
-50.91
-45.29
-38.63
-31.49
-24.40
-17.67
-11.40
-5.55
-0.10
4.93
9.54
13.85
18.15
22.79
28.05
33.98
40.38
46.82
52.86
58.24
63.02
67.55
72.29
77.51
83.01
88.07
91.56
92.16
88.75
80.72
68.13
51.83
33.42
14.93
-1.49
-14.21
-22.39
-26.31
-27.19
-26.68
-26.28
-26.80
-28.19
-29.74
-30.52
-29.82
-27.54
-24.22
-20.76
-18.16
-17.14
-18.08
-20.87
-25.06
-29.98
-34.91
-39.19
-42.28
-43.92
-44.08
-43.02
-41.15
-38.99
-36.97
-35.33
-33.99
-32.50
-30.28
-26.81
-21.93
-16.05
-10.06
-5.04
-1.77
-0.44
-0.56
-1.12
-1.12
0.13
2.78
6.43
10.52
14.55
18.25
21.65
24.88
28.07
31.21
34.18
36.82
39.05
40.88
42.41
43.64
44.54
44.95
44.65
43.52
41.48
38.42
34.12
28.27
20.71
11.76
2.34
-6.21
-12.66
-16.53
-18.27
-19.09
-20.31
-22.60
-25.65
-28.37
-29.31
-27.32
-21.64
-11.99
1.57
18.55
37.93
58.04
76.77
92.09
102.60
107.75
107.84
103.45
95.09
83.07
67.69
49.63
30.18
11.11
-5.78
-19.31
-29.21
-36.14
-41.21
-45.58
-49.91
-54.25
-58.30
-61.68
-64.29
-66.32
-68.12
-70.00
-71.87
-73.30
-73.64
-72.28
-68.93
-63.70
-57.08
-49.88
-42.86
-36.51
-31.02
-26.27
-22.05
-18.25
-14.89
-12.12
-10.00
-8.42
-7.03
-5.42
-3.26
-0.53
2.56
5.59
8.11
9.77
10.37
9.97
8.80
7.22
5.63
4.30
3.27
2.39
1.39
0.03
-1.73
-3.75
-5.73
-7.41
-8.61
-9.27
-9.39
-8.91
-7.78
-6.07
-3.98
-1.95
-0.52
-0.10
-0.88
-2.75
-5.37
-8.33
-11.34
-14.22
-16.98
-19.62
-22.09
-24.24
-25.90
-27.04
-27.72
-28.23
-28.94
-30.15
-32.00
-34.39
-37.07
-39.66
-41.94
-43.91
-45.76
-47.77
-50.14
-52.69
-54.94
-56.23
-56.01
-54.11
-50.82
-46.75
-42.30
-37.30
-30.89
-21.91
-9.38
6.80
25.82
46.22
66.36
84.70
99.74
109.98
114.36
112.92
107.37
101.06
97.86
100.51
109.11
120.97
131.62
136.75
133.84
122.76
105.17
83.51
59.88
35.75
12.06
-10.31
-30.26
-46.57
-58.20
-64.83
-67.12
-66.93
-66.52
-67.88
-71.89
-77.82
-83.70
-87.17
-86.33
-80.27
-69.09
-53.45
-34.29
-12.80
9.43
30.27
47.48
59.35
65.31
66.13
63.85
60.89
59.36
60.43
64.03
68.86
72.61
72.62
66.45
52.70
31.91
7.07
-16.68
-33.40
-38.47
-30.43
-11.66
12.54
35.83
52.70
59.56
55.09
40.05
17.14
-9.17
-33.30
-49.83
-55.07
-48.24
-31.39
-8.09
18.16
45.15
71.85
97.46
120.70
139.94
153.80
161.75
164.11
161.49
154.18
142.12
125.48
105.02
82.35
59.35
37.56
17.75
0.13
-15.29
-28.60
-40.02
-50.11
-59.65
-69.37
-79.39
-89.01
-96.94
-102.04
-103.82
-102.66
-99.50
-95.46
-91.73
-89.46
-89.66
-92.61
-97.05
-99.82
-96.35
-82.07
-54.05
-12.08
41.28
101.61
163.82
223.12
275.62
318.56
350.50
371.42
382.53
385.63
382.32
373.46
359.30
340.02
316.29
289.22
259.66
227.81
193.33
156.14
117.62
80.99
50.49
29.72
19.89
18.96
22.29
24.55
21.61
11.85
-3.94
-23.48
-44.38
-64.90
-84.37
-102.71
-120.11
-136.74
-152.67
-167.84
-182.01
-194.78
-205.55
-213.76
-219.43
-223.53
-228.21
-236.42
-251.01
-273.54
-303.28
-336.87
-368.98
-393.72
-406.11
-403.48
-385.77
-355.22
-315.63
-271.65
-228.05
-189.21
-158.34
-136.80
-123.79
-116.66
-112.07
-107.35
-101.55
-95.40
-90.61
-88.51
-89.16
-91.29
-93.05
-93.06
-91.13
-88.20
-85.50
-83.82
-82.88
-81.65
-79.21
-75.54
-71.75
-69.52
-70.11
-73.44
-78.12
-82.04
-83.53
-82.10
-78.47
-74.00
-69.73
-65.70
-60.89
-53.69
-42.62
-27.08
-7.73
13.57
34.07
50.84
61.45
64.58
60.27
49.95
36.03
21.39
8.84
0.63
-1.99
1.29
9.88
22.50
37.49
53.07
67.45
79.12
87.04
90.85
90.90
88.03
83.18
77.01
69.80
61.64
52.80
44.04
36.51
31.34
29.12
29.63
31.91
34.77
37.19
38.80
39.88
41.26
44.02
49.22
57.69
69.89
85.76
104.72
125.70
147.38
168.43
187.80
204.81
219.25
231.28
241.35
250.01
257.77
264.99
271.71
277.68
282.24
284.45
283.19
277.44
266.50
250.02
228.02
200.66
168.40
131.93
92.57
52.21
13.22
-22.02
-51.68
-74.83
-91.54
-102.60
-109.11
-112.22
-113.08
-112.70
-111.93
-111.31
-110.92
-110.45
-109.38
-107.32
-104.20
-100.27
-95.95
-91.57
-87.35
-83.37
-79.66
-76.21
-72.94
-69.70
-66.14
-61.98
-56.99
-51.15
-44.70
-38.05
-31.73
-26.25
-21.92
-18.78
-16.60
-14.96
-13.48
-11.93
-10.31
-8.73
-7.35
-6.22
-5.33
-4.66
-4.20
-4.06
-4.26
-4.82
-5.56
-6.34
-6.97
-7.43
-7.78
-8.16
-8.73
-9.55
-10.58
-11.70
-12.70
-13.43
-13.78
-13.79
-13.57
-13.39
-13.42
-13.77
-14.34
-14.77
-14.58
-13.37
-11.00
-7.71
-4.03
-0.57
2.17
4.02
5.00
5.29
5.04
4.37
3.41
2.36
1.55
1.23
1.55
2.39
3.41
4.12
4.19
3.46
2.10
0.54
-0.74
-1.35
-1.18
-0.45
0.39
0.87
0.68
-0.18
-1.45
-2.81
-4.01
-4.97
-5.77
-6.58
-7.56
-8.77
-10.26
-12.03
-14.04
-16.07
-17.78
-18.73
-18.57
-17.25
-15.01
-12.34
-9.72
-7.52
-5.74
-4.17
-2.47
-0.24
2.70
6.32
10.36
14.47
18.32
21.70
24.51
26.66
28.02
28.44
27.81
26.21
24.00
21.71
19.85
18.72
18.34
18.51
18.88
19.25
19.48
19.56
19.56
19.40
19.03
18.27
16.93
14.89
12.05
8.46
4.27
-0.25
-4.79
-8.96
-12.49
-15.26
-17.35
-19.03
-20.64
-22.41
-24.37
-26.35
-28.00
-29.00
-29.11
-28.28
-26.53
-24.00
-20.81
-17.10
-13.04
-8.81
-4.67
-0.87
2.33
4.76
6.38
7.21
7.26
6.57
5.16
3.11
0.58
-2.19
-4.97
-7.56
-9.83
-11.71
-13.12
-13.99
-14.25
-13.90
-12.99
-11.63
-9.93
-7.95
-5.66
-3.08
-0.26
2.65
5.39
7.72
9.42
10.42
10.78
10.75
10.63
10.66
10.94
11.37
11.71
11.76
11.43
10.83
10.12
9.35
8.43
7.19
5.50
3.35
0.95
-1.47
-3.70
-5.67
-7.38
-8.79
-9.86
-10.48
-10.65
-10.47
-10.18
-10.12
-10.56
-11.66
-13.38
-15.43
-17.38
-18.72
-18.99
-17.94
-15.63
-12.24
-8.01
-3.09
2.46
8.55
14.95
21.12
26.41
30.30
32.54
33.36
33.36
33.23
33.52
34.36
35.51
36.58
37.18
37.14
36.40
35.01
32.93
30.14
26.70
22.78
18.64
14.55
10.59
6.65
2.55
-1.83
-6.44
-11.06
-15.51
-19.67
-23.47
-26.85
-29.55
-31.25
-31.65
-30.60
-28.29
-25.10
-21.52
-17.92
-14.52
-11.39
-8.58
-6.13
-4.10
-2.48
-1.23
-0.26
0.52
1.13
1.64
2.19
2.92
4.00
5.42
6.97
8.29
9.03
9.03
8.42
7.52
6.67
6.05
5.57
4.95
3.87
2.13
-0.20
-2.91
-5.65
-8.15
-10.22
-11.91
-13.35
-14.77
-16.37
-18.26
-20.28
-22.22
-23.74
-24.57
-24.60
-23.87
-22.56
-20.86
-18.93
-16.78
-14.36
-11.58
-8.49
-5.29
-2.32
0.07
1.62
2.33
2.39
2.12
1.76
1.38
0.78
-0.41
-2.61
-6.14
-10.96
-16.67
-22.42
-27.15
-29.88
-30.14
-28.13
-24.67
-20.91
-17.82
-15.87
-14.95
-14.63
-14.44
-14.17
-13.91
-13.90
-14.27
-14.89
-15.33
-15.04
-13.50
-10.51
-6.17
-0.87
4.83
10.37
15.31
19.31
22.16
23.65
23.59
21.84
18.37
13.39
7.34
0.81
-5.50
-10.96
-15.05
-17.25
-17.06
-13.96
-7.68
1.68
13.39
26.25
38.76
49.54
57.77
63.26
66.41
67.93
68.52
68.66
68.47
67.80
66.29
63.53
59.20
53.22
45.82
37.51
29.01
21.07
14.22
8.74
4.60
1.54
-0.78
-2.58
-3.99
-5.09
-5.92
-6.63
-7.39
-8.32
-9.47
-10.74
-11.96
-12.97
-13.75
-14.37
-14.95
-15.64
-16.56
-17.61
-18.66
-19.49
-19.84
-19.64
-18.95
-18.02
-17.20
-16.87
-17.28
-18.42
-20.07
-21.85
-23.39
-24.43
-24.88
-24.75
-24.10
-23.06
-21.72
-20.25
-18.75
-17.32
-15.98
-14.66
-13.29
-11.74
-9.93
-7.83
-5.46
-2.87
-0.16
2.55
5.08
7.24
8.94
10.18
11.09
11.89
12.83
13.96
15.22
16.41
17.34
17.84
17.83
17.29
16.20
14.64
12.66
10.40
8.03
5.61
3.13
0.48
-2.44
-5.54
-8.52
-10.93
-12.34
-12.58
-11.76
-10.26
-8.54
-7.01
-5.89
-5.23
-5.01
-5.14
-5.59
-6.21
-6.80
-7.04
-6.64
-5.47
-3.68
-1.68
0.02
1.07
1.42
1.34
1.21
1.31
1.73
2.32
2.85
3.19
3.23
2.99
2.46
1.64
0.58
-0.57
-1.63
-2.41
-2.85
-3.04
-3.14
-3.36
-3.81
-4.47
-5.28
-6.13
-7.03
-8.07
-9.37
-11.00
-12.83
-14.52
-15.59
-15.59
-14.36
-12.05
-9.13
-6.15
-3.46
-1.23
0.68
2.42
3.95
5.16
5.83
5.91
5.51
4.92
4.45
4.22
4.13
3.95
3.49
2.74
1.91
1.24
0.96
1.03
1.16
0.96
0.14
-1.27
-2.93
-4.31
-4.99
-4.86
-4.23
-3.66
-3.78
-4.91
-6.92
-9.34
-11.54
-13.02
-13.56
-13.15
-11.98
-10.23
-8.06
-5.63
-3.14
-0.80
1.15
2.52
3.25
3.41
3.21
2.89
2.67
2.74
3.22
4.13
5.40
6.77
7.95
8.57
8.43
7.57
6.26
4.95
4.05
3.74
3.91
4.26
4.45
4.34
3.94
3.43
2.93
2.43
1.81
0.85
-0.56
-2.40
-4.60
-6.98
-9.30
-11.25
-12.48
-12.65
-11.65
-9.56
-6.73
-3.63
-0.64
2.02
4.32
6.29
7.89
8.99
9.54
9.61
9.41
9.24
9.23
9.35
9.38
9.12
8.51
7.70
6.93
6.46
6.33
6.36
6.32
6.01
5.44
4.73
4.09
3.66
3.44
3.39
3.37
3.21
2.64
1.42
-0.64
-3.53
-6.95
-10.36
-13.11
-14.73
-15.00
-14.02
-12.04
-9.38
-6.31
-3.10
-0.04
2.59
4.62
6.04
7.02
7.73
8.23
8.42
8.14
7.26
5.93
4.43
3.17
2.41
2.22
2.45
2.83
3.17
3.32
3.30
3.15
2.92
2.61
2.14
1.41
0.33
-1.09
-2.86
-4.80
-6.81
-8.74
-10.49
-12.01
-13.22
-13.96
-13.98
-13.08
-11.13
-8.31
-5.07
-2.02
0.27
1.51
1.79
1.45
0.90
0.47
0.31
0.42
0.78
1.42
2.35
3.51
4.77
5.91
6.72
7.05
6.88
6.30
5.45
4.56
3.88
3.65
3.99
4.84
5.96
6.98
7.61
7.70
7.31
6.60
5.70
4.65
3.41
1.93
0.27
-1.36
-2.62
-3.17
-2.73
-1.23
1.20
4.22
7.38
10.26
12.64
14.49
15.92
17.07
17.98
18.55
18.57
17.87
16.38
14.25
11.83
9.71
8.63
9.28
11.95
16.24
20.98
24.52
25.31
22.55
16.55
8.60
0.31
-6.99
-12.66
-16.71
-19.45
-21.22
-22.19
-22.52
-22.50
-22.62
-23.41
-25.10
-27.57
-30.31
-32.65
-34.04
-34.19
-32.99
-30.51
-26.90
-22.36
-17.32
-12.38
-8.17
-5.17
-3.42
-2.56
-2.02
-1.38
-0.64
-0.31
-1.02
-3.14
-6.45
-10.11
-13.09
-14.63
-14.64
-13.70
-12.75
-12.54
-13.20
-14.22
-14.67
-13.56
-10.31
-4.91
2.11
9.84
17.23
23.29
27.24
28.67
27.73
25.15
22.00
19.26
17.49
16.60
16.01
14.98
13.13
10.65
8.22
6.72
6.87
9.05
13.30
19.45
27.20
36.06
45.41
54.37
61.91
67.03
68.95
67.33
62.44
55.07
46.33
37.33
28.82
21.08
14.04
7.54
1.70
-3.07
-6.26
-7.51
-6.88
-4.87
-2.11
0.73
2.94
3.79
2.41
-2.00
-9.85
-20.76
-33.49
-46.22
-57.07
-64.79
-68.92
-69.81
-68.17
-64.72
-60.05
-54.58
-48.84
-43.47
-39.10
-36.02
-33.90
-31.86
-28.82
-24.06
-17.66
-10.65
-4.59
-1.02
-0.75
-3.62
-8.57
-14.08
-18.71
-21.55
-22.33
-21.32
-19.15
-16.49
-13.97
-12.18
-11.59
-12.53
-15.03
-18.70
-22.57
-25.26
-25.35
-21.90
-14.86
-5.15
5.51
15.19
22.27
25.99
26.48
24.70
22.13
20.29
20.22
22.01
24.59
25.91
23.51
15.37
0.67
-19.69
-43.24
-66.43
-85.47
-97.12
-99.37
-91.77
-75.54
-53.30
-28.55
-4.95
14.47
27.85
34.82
36.24
33.83
29.65
25.65
23.34
23.56
26.46
31.52
37.77
44.05
49.31
52.75
53.99
53.00
50.09
45.75
40.56
35.07
29.66
24.55
19.88
15.84
12.65
10.53
9.57
9.53
9.91
10.11
9.67
8.46
6.69
4.71
2.71
0.71
-1.51
-4.13
-7.13
-10.28
-13.32
-16.13
-18.90
-21.94
-25.45
-29.25
-32.75
-35.16
-35.92
-35.01
-33.07
-31.18
-30.40
-31.29
-33.76
-37.21
-40.84
-44.15
-46.98
-49.56
-52.22
-55.19
-58.53
-62.24
-66.41
-71.26
-77.09
-84.01
-91.87
-100.29
-108.92
-117.61
-126.63
-136.38
-147.05
-158.31
-169.27
-178.64
-185.04
-187.30
-184.52
-176.06
-161.41
-140.28
-112.79
-79.56
-41.92
-1.74
38.80
77.47
112.36
142.04
165.64
182.81
193.74
199.02
199.52
196.23
190.14
182.16
173.11
163.66
154.34
145.49
137.25
129.47
122.01
114.69
107.49
100.45
93.66
87.10
80.65
74.11
67.32
60.26
53.09
46.12
39.70
34.11
29.48
25.67
22.35
19.08
15.55
11.60
7.37
3.16
-0.71
-3.90
-6.22
-7.54
-7.82
-7.24
-6.08
-4.71
-3.39
-2.27
-1.31
-0.40
0.53
1.39
1.98
2.15
1.88
1.38
0.99
1.01
1.59
2.61
3.78
4.75
5.32
5.43
5.20
4.75
4.13
3.29
2.15
0.72
-0.91
-2.50
-3.83
-4.73
-5.28
-5.64
-6.02
-6.52
-7.01
-7.14
-6.46
-4.66
-1.70
2.11
6.17
9.74
12.23
13.30
12.97
11.56
9.60
7.57
5.83
4.47
3.44
2.68
2.24
2.29
2.96
4.18
5.63
6.78
7.13
6.39
4.56
1.97
-1.02
-4.02
-6.68
-8.67
-9.67
-9.49
-8.18
-6.13
-3.93
-2.25
-1.53
-1.87
-3.01
-4.54
-6.05
-7.27
-8.09
-8.48
-8.39
-7.68
-6.15
-3.67
-0.31
3.65
7.70
11.28
13.89
15.23
15.28
14.26
12.59
10.71
8.99
7.62
6.63
5.93
5.47
5.31
5.52
6.09
6.86
7.45
7.43
6.49
4.66
2.23
-0.30
-2.50
-4.21
-5.53
-6.71
-7.96
-9.31
-10.54
-11.38
-11.47
-10.60
-8.69
-5.91
-2.61
0.74
3.66
5.77
6.85
6.93
6.20
5.00
3.68
2.58
1.93
1.81
2.10
2.49
2.65
2.37
1.68
0.83
0.15
-0.12
0.03
0.39
0.71
0.83
0.71
0.43
0.03
-0.59
-1.59
-3.12
-5.15
-7.37
-9.32
-10.55
-10.81
-10.20
-9.09
-7.85
-6.76
-5.80
-4.79
-3.48
-1.82
0.10
1.99
3.60
4.83
5.72
6.47
7.20
7.93
8.51
8.79
8.66
8.18
7.48
6.74
6.13
5.70
5.44
5.35
5.42
5.64
5.96
6.25
6.28
5.84
4.72
2.82
0.20
-2.95
-6.35
-9.66
-12.53
-14.63
-15.75
-15.89
-15.23
-14.14
-13.02
-12.13
-11.59
-11.23
-10.82
-10.15
-9.21
-8.15
-7.20
-6.47
-5.91
-5.29
-4.35
-2.96
-1.18
0.78
2.60
4.01
4.91
5.39
5.64
5.88
6.20
6.55
6.76
6.71
6.31
5.62
4.74
3.79
2.79
1.74
0.70
-0.23
-0.80
-0.87
-0.46
0.17
0.57
0.36
-0.58
-1.98
-3.27
-3.78
-3.14
-1.41
0.93
3.22
4.93
5.90
6.30
6.46
6.54
6.50
6.16
5.36
4.12
2.77
1.62
0.90
0.61
0.56
0.57
0.51
0.45
0.52
0.80
1.29
1.82
2.21
2.30
1.99
1.29
0.32
-0.77
-1.78
-2.55
-3.03
-3.22
-3.19
-3.04
-2.82
-2.53
-2.14
-1.57
-0.77
0.30
1.69
3.38
5.33
7.47
9.66
11.70
13.34
14.32
14.46
13.68
12.17
10.24
8.35
6.83
5.76
4.99
4.18
3.08
1.65
0.06
-1.44
-2.69
-3.76
-4.74
-5.78
-6.83
-7.73
-8.31
-8.61
-8.86
-9.35
-10.37
-11.87
-13.57
-15.13
-16.27
-17.00
-17.41
-17.65
-17.68
-17.30
-16.32
-14.63
-12.40
-10.02
-7.95
-6.54
-5.95
-6.10
-6.73
-7.38
-7.50
-6.43
-3.64
1.05
7.38
14.57
21.61
27.46
31.42
33.23
33.03
31.29
28.47
24.97
21.09
16.97
12.73
8.47
4.29
0.27
-3.53
-7.01
-10.01
-12.25
-13.38
-13.20
-11.77
-9.49
-7.02
-5.00
-3.86
-3.57
-3.75
-3.82
-3.18
-1.43
1.56
5.57
10.17
14.69
18.43
20.93
22.11
22.29
22.10
22.03
22.28
22.59
22.40
21.18
18.65
14.96
10.56
6.14
2.43
0.05
-0.61
0.45
2.80
5.67
8.12
9.40
9.04
7.03
3.73
-0.26
-4.14
-7.04
-8.15
-6.95
-3.48
1.61
7.17
11.92
14.88
15.64
14.42
11.85
8.65
5.61
3.39
2.64
3.91
7.44
12.96
19.65
26.20
31.26
33.89
33.87
31.64
28.08
24.06
20.15
16.55
13.14
9.71
6.19
2.77
-0.21
-2.29
-3.17
-2.76
-1.26
0.81
2.78
3.94
3.68
1.68
-2.07
-7.34
-13.68
-20.45
-26.93
-32.37
-36.18
-38.13
-38.46
-37.83
-36.96
-36.25
-35.54
-34.09
-31.01
-25.76
-18.58
-10.42
-2.65
3.46
7.09
8.03
6.55
3.18
-1.43
-6.56
-11.57
-15.88
-19.05
-20.89
-21.47
-21.04
-19.87
-18.25
-16.35
-14.29
-12.08
-9.76
-7.38
-5.07
-3.02
-1.46
-0.62
-0.63
-1.49
-3.01
-4.93
-6.99
-9.05
-11.07
-13.06
-14.88
-16.28
-16.91
-16.50
-15.05
-12.87
-10.48
-8.40
-6.95
-6.17
-5.94
-6.06
-6.39
-6.77
-6.98
-6.66
-5.48
-3.22
-0.06
3.54
6.93
9.53
11.04
11.47
11.12
10.37
9.57
8.95
8.61
8.59
8.85
9.33
9.94
10.53
10.88
10.72
9.77
7.79
4.74
0.79
-3.62
-8.02
-11.97
-15.21
-17.64
-19.27
-20.02
-19.81
-18.51
-16.20
-13.21
-10.10
-7.56
-6.07
-5.73
-6.23
-6.95
-7.38
-7.25
-6.64
-5.84
-5.15
-4.69
-4.41
-4.24
-4.21
-4.48
-5.18
-6.21
-7.17
-7.53
-6.89
-5.17
-2.69
0.08
2.73
5.22
7.71
10.44
13.39
16.22
18.36
19.34
19.16
18.32
17.73
18.20
20.11
23.19
26.66
29.59
31.22
31.24
29.68
26.85
23.14
18.94
14.70
10.87
7.84
5.75
4.40
3.36
2.14
0.44
-1.69
-4.03
-6.27
-8.20
-9.75
-10.97
-11.84
-12.31
-12.37
-12.09
-11.63
-11.29
-11.23
-11.44
-11.75
-11.85
-11.51
-10.64
-9.33
-7.83
-6.43
-5.39
-4.90
-5.03
-5.69
-6.72
-7.90
-9.08
-10.13
-10.98
-11.59
-11.88
-11.81
-11.36
-10.63
-9.75
-8.81
-7.85
-6.79
-5.55
-4.11
-2.55
-1.06
0.19
1.06
1.54
1.71
1.69
1.60
1.54
1.55
1.66
1.88
2.33
3.13
4.42
6.19
8.12
9.66
10.15
9.26
7.25
4.95
3.57
4.07
6.77
11.21
16.39
21.23
25.03
27.62
29.14
29.81
29.67
28.59
26.36
22.94
18.48
13.25
7.56
1.68
-4.09
-9.34
-13.60
-16.38
-17.43
-16.89
-15.22
-13.09
-11.07
-9.44
-8.23
-7.24
-6.30
-5.34
-4.50
-3.90
-3.57
-3.34
-2.95
-2.18
-1.00
0.45
1.90
3.14
4.13
5.03
6.02
7.18
8.35
9.18
9.28
8.45
6.77
4.72
2.87
1.76
1.70
2.63
4.19
5.85
7.12
7.62
7.25
6.17
4.70
3.32
2.42
2.27
2.88
3.99
5.16
5.99
6.17
5.66
4.54
3.03
1.34
-0.34
-1.88
-3.21
-4.28
-5.16
-5.99
-6.92
-8.05
-9.33
-10.60
-11.65
-12.38
-12.83
-13.11
-13.44
-13.94
-14.65
-15.54
-16.43
-17.12
-17.38
-17.06
-16.17
-14.97
-13.82
-13.14
-13.16
-13.82
-14.77
-15.51
-15.64
-15.00
-13.84
-12.53
-11.52
-11.09
-11.25
-11.84
-12.69
-13.73
-15.05
-16.86
-19.28
-22.27
-25.47
-28.29
-30.07
-30.39
-29.25
-27.16
-24.95
-23.45
-23.23
-24.43
-26.82
-30.01
-33.47
-36.74
-39.34
-40.94
-41.46
-41.07
-40.18
-39.13
-37.96
-36.31
-33.49
-28.91
-22.42
-14.36
-5.54
3.02
10.35
15.69
18.85
20.51
22.26
26.10
33.68
45.42
60.13
75.43
88.74
98.30
103.58
104.98
103.05
97.92
89.17
76.35
59.64
40.18
19.94
1.12
-14.44
-25.71
-32.67
-36.28
-38.16
-40.14
-43.72
-49.67
-57.85
-67.46
-77.50
-87.13
-95.90
-103.66
-110.35
-115.89
-120.25
-123.59
-126.30
-129.06
-132.51
-137.03
-142.51
-148.36
-153.53
-156.84
-157.02
-152.95
-143.70
-128.55
-107.15
-79.66
-46.85
-10.25
28.02
65.48
99.65
128.46
150.47
164.95
172.00
172.40
167.52
159.02
148.65
137.83
127.48
118.02
109.48
101.71
94.61
88.13
82.24
76.88
71.97
67.45
63.33
59.71
56.61
53.95
51.44
48.75
45.56
41.73
37.39
32.84
28.46
24.56
21.29
18.65
16.61
15.10
14.06
13.35
12.65
11.52
9.49
6.28
1.97
-2.93
-7.58
-11.08
-12.82
-12.64
-10.86
-8.14
-5.21
-2.65
-0.85
0.00
-0.14
-1.23
-3.06
-5.26
-7.32
-8.82
-9.57
-9.69
-9.46
-9.19
-8.88
-8.25
-6.85
-4.25
-0.30
4.90
11.02
17.59
24.11
30.06
35.04
38.72
41.09
42.39
43.07
43.52
43.94
44.20
43.91
42.63
40.06
36.19
31.27
25.65
19.58
13.06
5.91
-2.04
-10.66
-19.36
-27.11
-32.84
-35.82
-35.91
-33.66
-30.01
-25.92
-22.13
-18.98
-16.52
-14.61
-13.07
-11.73
-10.48
-9.28
-8.18
-7.26
-6.63
-6.34
-6.38
-6.70
-7.23
-7.90
-8.55
-8.93
-8.76
-7.78
-5.89
-3.22
-0.05
3.23
6.30
9.03
11.44
13.67
15.90
18.30
20.93
23.79
26.73
29.43
31.46
32.24
31.26
28.19
23.07
16.31
8.71
1.22
-5.22
-9.90
-12.50
-13.14
-12.34
-10.83
-9.31
-8.29
-7.97
-8.34
-9.22
-10.46
-11.93
-13.48
-15.03
-16.44
-17.59
-18.44
-19.00
-19.35
-19.61
-19.83
-20.07
-20.36
-20.68
-21.01
-21.30
-21.50
-21.56
-21.50
-21.40
-21.38
-21.58
-22.03
-22.65
-23.23
-23.54
-23.49
-23.16
-22.70
-22.23
-21.67
-20.72
-18.91
-15.90
-11.64
-6.45
-0.98
4.10
8.24
11.17
12.89
13.60
13.52
12.90
11.94
10.87
9.89
9.20
8.96
9.27
10.09
11.24
12.51
13.65
14.53
15.16
15.63
16.11
16.64
17.16
17.52
17.58
17.35
16.93
16.48
16.13
15.89
15.82
16.04
16.81
18.30
20.45
22.77
24.52
24.88
23.39
20.06
15.41
10.21
5.13
0.59
-3.25
-6.39
-8.86
-10.76
-12.16
-13.12
-13.74
-13.99
-13.78
-13.04
-11.88
-10.64
-9.89
-10.20
-11.87
-14.75
-18.24
-21.53
-23.89
-24.86
-24.42
-22.76
-20.24
-17.25
-14.11
-11.10
-8.41
-6.16
-4.39
-3.08
-2.18
-1.65
-1.44
-1.45
-1.57
-1.73
-1.92
-2.26
-2.84
-3.69
-4.61
-5.31
-5.53
-5.17
-4.33
-3.31
-2.43
-1.89
-1.69
-1.70
-1.69
-1.47
-0.99
-0.32
0.47
1.28
2.08
2.98
4.07
5.40
6.88
8.34
9.56
10.41
10.92
11.26
11.66
12.37
13.49
15.00
16.69
18.23
19.22
19.33
18.35
16.22
13.00
8.91
4.30
-0.37
-4.53
-7.74
-9.81
-10.88
-11.35
-11.68
-12.12
-12.57
-12.70
-12.13
-10.73
-8.70
-6.58
-4.97
-4.51
-5.65
-8.66
-13.51
-19.78
-26.51
-32.43
-36.07
-36.33
-32.77
-25.85
-16.75
-7.00
2.06
9.58
15.31
19.44
22.27
24.00
24.70
24.44
23.38
21.79
20.04
18.39
16.94
15.71
14.66
13.84
13.37
13.33
13.65
14.06
14.19
13.72
12.49
10.50
7.95
5.05
2.02
-0.99
-3.89
-6.58
-9.00
-11.00
-12.40
-13.07
-12.97
-12.19
-11.04
-9.85
-8.98
-8.65
-8.85
-9.46
-10.30
-11.26
-12.33
-13.59
-15.11
-16.82
-18.57
-20.12
-21.27
-21.89
-21.90
-21.29
-20.06
-18.23
-15.81
-12.84
-9.42
-5.66
-1.74
2.19
5.98
9.56
12.94
16.17
19.25
22.05
24.25
25.43
25.27
23.66
20.89
17.52
14.16
11.22
8.84
6.78
4.62
1.97
-1.28
-4.92
-8.40
-11.06
-12.30
-11.82
-9.67
-6.36
-2.61
0.79
3.27
4.60
5.02
5.03
5.27
6.20
7.94
10.24
12.55
14.29
14.98
14.44
12.80
10.38
7.64
5.04
2.95
1.61
1.10
1.32
1.99
2.72
3.16
3.08
2.53
1.70
0.84
0.12
-0.40
-0.75
-0.98
-1.06
-0.95
-0.66
-0.31
-0.10
-0.25
-0.87
-1.94
-3.30
-4.82
-6.36
-7.88
-9.40
-10.88
-12.24
-13.38
-14.11
-14.31
-13.95
-13.15
-12.23
-11.51
-11.22
-11.36
-11.65
-11.67
-11.08
-9.88
-8.48
-7.61
-7.94
-9.86
-13.12
-16.96
-20.29
-22.07
-21.70
-19.15
-14.94
-10.02
-5.40
-1.93
-0.13
-0.14
-1.80
-4.69
-8.28
-11.95
-15.11
-17.15
-17.61
-16.22
-13.05
-8.50
-3.28
1.79
5.99
8.83
10.22
10.35
9.59
8.35
6.96
5.75
5.05
5.09
6.01
7.66
9.60
11.22
11.96
11.65
10.63
9.72
9.77
11.33
14.32
18.08
21.69
24.37
25.82
26.26
26.22
26.17
26.35
26.67
26.87
26.67
25.81
24.17
21.71
18.55
14.98
11.45
8.38
6.01
4.37
3.15
1.83
-0.13
-3.20
-7.63
-13.36
-20.08
-27.29
-34.32
-40.57
-45.59
-49.19
-51.35
-52.17
-51.68
-49.81
-46.44
-41.52
-35.25
-28.10
-20.74
-13.86
-8.04
-3.52
-0.33
1.70
2.73
2.86
2.17
0.85
-0.81
-2.39
-3.47
-3.73
-2.97
-1.10
1.93
6.09
11.30
17.33
23.87
30.63
37.31
43.75
49.79
55.22
59.72
62.86
64.23
63.55
60.85
56.39
50.68
44.30
37.85
31.82
26.55
22.21
18.79
16.08
13.81
11.63
9.33
6.75
3.84
0.58
-3.00
-6.83
-10.69
-14.33
-17.45
-19.88
-21.63
-22.85
-23.76
-24.44
-24.83
-24.75
-24.08
-22.85
-21.35
-19.97
-19.07
-18.81
-19.14
-19.85
-20.71
-21.61
-22.71
-24.38
-27.04
-31.01
-36.28
-42.48
-48.96
-54.94
-59.82
-63.29
-65.37
-66.23
-65.94
-64.27
-60.60
-54.26
-44.85
-32.60
-18.48
-3.98
9.35
20.27
28.21
33.27
36.09
37.63
38.89
40.67
43.40
46.98
50.86
54.26
56.44
56.93
55.63
52.69
48.52
43.61
38.63
34.37
31.61
30.96
32.57
36.13
40.93
46.16
51.13
55.34
58.35
59.69
58.72
54.83
47.85
38.27
27.37
16.86
8.23
2.29
-1.08
-2.61
-3.09
-2.88
-1.85
0.30
3.61
7.57
11.25
13.69
14.40
13.55
11.87
10.25
9.39
9.71
11.31
14.21
18.27
23.24
28.51
33.19
36.17
36.51
33.63
27.51
18.63
7.80
-4.10
-16.19
-27.73
-38.01
-46.55
-53.12
-57.90
-61.42
-64.37
-67.29
-70.42
-73.65
-76.55
-78.66
-79.63
-79.32
-77.74
-74.99
-71.24
-66.56
-61.08
-54.86
-48.09
-40.96
-33.73
-26.64
-19.93
-13.87
-8.62
-4.35
-1.14
1.10
2.64
3.90
5.43
7.70
10.92
15.04
19.74
24.58
29.18
33.26
36.70
39.34
41.00
41.39
40.31
37.80
34.18
30.07
26.00
22.27
18.82
15.38
11.72
7.86
4.04
0.61
-2.16
-4.22
-5.57
-6.21
-6.04
-4.98
-3.04
-0.51
2.17
4.48
6.02
6.61
6.28
5.19
3.60
1.75
-0.09
-1.73
-3.07
-4.10
-4.95
-5.74
-6.69
-7.90
-9.50
-11.58
-14.15
-17.11
-20.29
-23.48
-26.46
-29.03
-31.08
-32.52
-33.29
-33.30
-32.46
-30.64
-27.84
-24.16
-19.90
-15.50
-11.35
-7.78
-4.87
-2.55
-0.61
1.09
2.61
3.93
5.04
5.95
6.70
7.35
7.94
8.42
8.74
8.90
8.85
8.61
8.13
7.34
6.14
4.53
2.61
0.56
-1.35
-2.86
-3.79
-4.07
-3.82
-3.18
-2.33
-1.41
-0.49
0.39
1.22
2.03
2.96
4.12
5.69
7.74
10.27
13.09
15.94
18.55
20.75
22.55
24.06
25.46
26.86
28.28
29.66
30.91
31.96
32.76
33.32
33.59
33.46
32.85
31.67
30.05
28.20
26.39
24.85
23.64
22.66
21.79
20.95
20.15
19.50
19.07
18.88
18.81
18.66
18.22
17.33
15.92
13.99
11.68
9.16
6.66
4.39
2.49
0.93
-0.40
-1.72
-3.22
-4.95
-6.88
-8.88
-10.70
-12.10
-12.81
-12.65
-11.61
-9.90
-7.93
-6.15
-4.93
-4.45
-4.66
-5.46
-6.77
-8.56
-10.82
-13.46
-16.26
-18.97
-21.40
-23.55
-25.53
-27.51
-29.55
-31.60
-33.60
-35.49
-37.17
-38.50
-39.12
-38.60
-36.61
-33.21
-28.90
-24.46
-20.67
-17.94
-16.20
-15.03
-13.87
-12.25
-10.02
-7.28
-4.34
-1.60
0.59
1.98
2.52
2.28
1.40
-0.09
-2.38
-5.73
-10.33
-16.01
-22.15
-27.69
-31.47
-32.55
-30.67
-26.32
-20.55
-14.56
-9.22
-4.76
-0.89
2.92
7.05
11.49
15.94
20.10
23.85
27.34
30.72
33.96
36.67
38.26
38.25
36.56
33.53
29.87
26.24
23.10
20.61
18.61
16.87
15.16
13.33
11.36
9.30
7.29
5.50
4.08
3.04
2.34
1.87
1.54
1.33
1.27
1.41
1.74
2.25
2.92
3.71
4.61
5.57
6.57
7.60
8.70
9.89
11.16
12.34
13.10
13.09
12.07
10.08
7.40
4.48
1.82
-0.15
-1.05
-0.62
1.29
4.61
9.01
13.85
18.32
21.67
23.41
23.40
21.87
19.24
16.00
12.51
8.99
5.50
2.01
-1.42
-4.68
-7.58
-9.87
-11.44
-12.31
-12.63
-12.56
-12.17
-11.36
-10.01
-8.10
-5.85
-3.72
-2.15
-1.35
-1.11
-0.95
-0.35
0.90
2.63
4.36
5.66
6.42
6.82
7.27
7.95
8.71
9.01
8.17
5.62
1.21
-4.78
-11.76
-18.98
-25.79
-31.65
-36.21
-39.19
-40.51
-40.32
-39.01
-37.23
-35.62
-34.65
-34.40
-34.59
-34.72
-34.35
-33.28
-31.49
-29.11
-26.22
-22.83
-18.97
-14.73
-10.45
-6.62
-3.75
-2.18
-1.99
-2.91
-4.49
-6.19
-7.55
-8.39
-8.76
-8.85
-8.90
-9.09
-9.49
-9.99
-10.34
-10.22
-9.26
-7.28
-4.26
-0.42
3.82
8.01
11.81
14.99
17.49
19.32
20.49
21.01
20.90
20.27
19.29
18.14
16.94
15.70
14.33
12.74
10.96
9.13
7.56
6.58
6.40
7.00
8.13
9.33
10.20
10.48
10.17
9.45
8.59
7.73
6.94
6.15
5.26
4.21
3.01
1.74
0.47
-0.69
-1.67
-2.41
-2.87
-2.97
-2.64
-1.85
-0.61
1.01
2.82
4.67
6.49
8.29
10.13
12.00
13.72
14.95
15.37
14.86
13.62
12.07
10.65
9.57
8.68
7.67
6.28
4.41
2.23
-0.00
-2.10
-3.97
-5.71
-7.43
-9.19
-10.97
-12.66
-14.11
-15.18
-15.79
-15.92
-15.60
-14.99
-14.28
-13.70
-13.37
-13.30
-13.33
-13.25
-12.82
-11.96
-10.74
-9.27
-7.66
-5.88
-3.89
-1.69
0.54
2.50
3.83
4.38
4.21
3.61
2.92
2.36
1.98
1.70
1.41
1.10
0.82
0.68
0.76
1.06
1.55
2.17
2.88
3.59
4.24
4.77
5.17
5.44
5.62
5.72
5.76
5.80
5.93
6.27
6.92
7.94
9.22
10.59
11.82
12.67
13.05
12.91
12.35
11.48
10.46
9.46
8.54
7.77
7.08
6.38
5.56
4.61
3.54
2.50
1.68
1.27
1.44
2.20
3.42
4.81
6.05
6.94
7.41
7.60
7.74
8.06
8.64
9.48
10.51
11.66
12.86
14.01
14.96
15.42
15.10
13.75
11.36
8.18
4.60
1.11
-1.99
-4.57
-6.73
-8.68
-10.54
-12.24
-13.57
-14.27
-14.17
-13.34
-12.01
-10.49
-8.97
-7.46
-5.83
-3.98
-1.95
0.09
1.91
3.35
4.40
5.15
5.66
5.88
5.67
4.95
3.81
2.56
1.55
1.08
1.13
1.49
1.86
2.09
2.31
2.80
3.89
5.70
8.08
10.62
12.90
14.63
15.78
16.61
17.48
18.77
20.68
23.20
26.16
29.30
32.36
35.20
37.70
39.86
41.77
43.72
46.16
49.66
54.54
60.63
67.02
72.29
74.97
74.16
69.90
62.98
54.54
45.39
35.62
24.66
11.64
-4.05
-22.39
-42.55
-63.03
-81.95
-97.40
-107.91
-112.75
-112.17
-107.33
-99.98
-91.94
-84.70
-79.07
-75.25
-72.89
-71.37
-69.97
-68.04
-65.08
-60.87
-55.52
-49.41
-43.11
-37.24
-32.26
-28.40
-25.63
-23.79
-22.63
-21.93
-21.45
-21.05
-20.64
-20.19
-19.77
-19.47
-19.29
-19.16
-18.82
-17.87
-15.92
-12.82
-8.71
-4.11
0.19
3.48
5.41
6.13
6.25
6.38
6.80
7.25
7.04
5.52
2.63
-0.95
-3.91
-4.87
-2.95
1.84
8.63
16.06
22.82
28.03
31.46
33.37
34.26
34.52
34.18
33.01
30.63
26.93
22.18
17.02
12.13
8.01
4.68
1.84
-0.83
-3.53
-6.06
-8.01
-9.00
-8.91
-7.96
-6.64
-5.41
-4.52
-3.95
-3.50
-2.98
-2.30
-1.53
-0.76
-0.04
0.67
1.48
2.44
3.60
4.91
6.32
7.77
9.22
10.59
11.77
12.66
13.18
13.37
13.31
13.09
12.75
12.29
11.63
10.66
9.30
7.53
5.45
3.30
1.39
0.04
-0.56
-0.53
-0.31
-0.55
-1.90
-4.75
-8.99
-14.00
-18.81
-22.44
-24.21
-24.02
-22.30
-19.79
-17.23
-14.94
-12.82
-10.40
-7.20
-3.08
1.69
6.37
10.05
12.00
11.79
9.37
5.18
0.20
-4.05
-5.80
-3.74
2.29
10.89
19.38
24.75
24.91
19.52
10.03
-1.03
-11.22
-19.10
-24.38
-27.74
-30.14
-32.36
-34.61
-36.58
-37.44
-36.29
-32.64
-26.86
-20.35
-14.97
-12.20
-12.45
-14.69
-16.88
-17.04
-14.03
-8.09
-0.60
6.67
12.32
15.63
16.66
15.96
14.29
12.40
10.97
10.43
11.04
12.78
15.55
19.15
23.36
27.79
31.92
35.13
36.98
37.44
37.06
36.67
37.04
38.38
40.25
41.78
42.10
40.79
37.99
34.22
30.04
25.89
21.92
18.09
14.23
10.18
5.78
1.00
-4.07
-9.22
-14.12
-18.48
-22.11
-24.94
-26.95
-28.14
-28.46
-27.90
-26.54
-24.56
-22.26
-19.95
-17.84
-16.02
-14.49
-13.25
-12.29
-11.56
-11.00
-10.42
-9.64
-8.49
-6.99
-5.33
-3.73
-2.34
-1.12
0.15
1.77
3.88
6.42
9.07
11.38
13.03
13.86
14.01
13.74
13.35
12.99
12.68
12.35
11.96
11.58
11.34
11.37
11.66
12.03
12.15
11.70
10.49
8.53
5.99
3.14
0.25
-2.43
-4.62
-6.14
-6.89
-7.03
-6.92
-6.96
-7.50
-8.66
-10.28
-12.08
-13.81
-15.30
-16.49
-17.32
-17.71
-17.52
-16.77
-15.60
-14.29
-13.11
-12.15
-11.27
-10.15
-8.46
-6.07
-3.03
0.38
3.85
7.13
10.10
12.72
15.03
17.01
18.58
19.68
20.23
20.20
19.62
18.50
16.83
14.54
11.50
7.58
2.80
-2.63
-8.23
-13.36
-17.42
-20.00
-20.98
-20.55
-19.14
-17.18
-15.04
-12.83
-10.46
-7.63
-4.02
0.55
5.91
11.56
16.76
20.81
23.35
24.51
24.87
25.19
26.12
27.88
30.16
32.31
33.58
33.54
32.23
30.21
28.34
27.42
27.91
29.85
32.92
36.67
40.65
44.57
48.41
52.59
58.17
66.80
80.29
99.82
125.03
153.65
181.84
205.39
221.06
227.65
225.98
218.26
206.77
192.97
177.11
158.51
136.06
108.73
75.81
37.29
-5.81
-50.97
-94.13
-130.53
-156.07
-169.07
-171.21
-167.45
-164.50
-168.87
-185.18
-215.25
-257.93
-309.23
-362.75
-410.30
-443.42
-455.33
-443.01
-408.25
-356.97
-297.12
-235.94
-178.00
-124.59
-74.66
-26.39
21.36
68.49
113.95
156.39
194.80
228.75
258.02
282.06
299.21
306.94
302.52
284.66
254.71
217.01
177.72
142.67
115.25
95.44
80.53
66.87
51.78
34.51
16.00
-2.02
-18.08
-31.19
-40.68
-45.92
-46.27
-41.40
-31.83
-19.07
-5.37
6.76
15.22
18.64
16.54
9.32
-1.80
-14.97
-28.04
-39.05
-46.76
-50.90
-52.03
-51.19
-49.34
-47.24
-45.35
-43.94
-43.20
-43.23
-43.96
-45.02
-45.81
-45.65
-44.05
-40.90
-36.55
-31.71
-27.25
-23.86
-21.83
-20.90
-20.33
-19.16
-16.59
-12.23
-6.26
0.76
8.07
15.00
21.08
25.98
29.57
31.87
33.05
33.43
33.38
33.14
32.78
32.22
31.42
30.43
29.55
29.15
29.45
30.46
31.85
33.17
34.07
34.46
34.59
34.84
35.52
36.75
38.32
39.95
41.29
42.09
42.15
41.33
39.51
36.68
32.90
28.38
23.40
18.16
12.70
6.96
0.76
-6.10
-13.78
-22.36
-31.78
-41.73
-51.58
-60.49
-67.61
-72.35
-74.50
-74.18
-71.69
-67.32
-61.33
-54.13
-46.35
-38.84
-32.56
-28.26
-26.33
-26.79
-29.30
-33.41
-38.49
-43.87
-48.81
-52.65
-55.03
-55.99
-56.02
-55.80
-55.85
-56.24
-56.55
-56.09
-54.28
-50.96
-46.41
-41.17
-35.71
-30.26
-24.78
-19.17
-13.47
-7.96
-3.06
0.83
3.53
5.20
6.19
6.91
7.53
7.93
7.76
6.70
4.76
2.29
-0.11
-1.93
-3.08
-3.91
-5.08
-7.09
-10.02
-13.47
-16.78
-19.36
-20.99
-21.78
-22.07
-22.21
-22.46
-23.00
-23.93
-25.28
-26.94
-28.76
-30.54
-32.26
-34.03
-36.00
-38.16
-40.24
-41.78
-42.35
-41.76
-40.14
-37.81
-35.01
-31.84
-28.32
-24.58
-21.02
-18.14
-16.30
-15.46
-15.16
-14.73
-13.66
-11.86
-9.57
-7.27
-5.27
-3.63
-2.16
-0.54
1.52
4.21
7.66
11.91
16.97
22.72
28.88
35.14
41.27
47.36
53.85
61.33
70.11
79.95
89.77
97.98
103.00
103.86
100.69
94.61
87.30
80.33
74.60
70.12
66.24
62.03
56.77
50.18
42.55
34.54
26.99
20.60
15.74
12.45
10.53
9.68
9.58
9.89
10.12
9.56
7.39
2.91
-4.02
-12.71
-21.75
-29.33
-33.88
-34.54
-31.43
-25.48
-18.00
-10.20
-3.02
2.94
7.19
9.27
8.83
5.81
0.61
-5.82
-12.28
-17.64
-21.25
-23.07
-23.57
-23.31
-22.61
-21.29
-18.75
-14.29
-7.36
2.05
13.39
25.58
37.18
46.75
53.10
55.73
54.91
51.70
47.68
44.40
43.00
43.94
47.10
51.98
58.03
64.71
71.38
77.21
81.18
82.35
80.19
74.76
66.74
56.99
46.25
34.96
23.29
11.35
-0.59
-11.96
-22.04
-30.07
-35.33
-37.23
-35.40
-29.91
-21.38
-11.26
-1.67
5.01
6.86
3.07
-5.68
-17.41
-29.48
-39.50
-46.20
-49.81
-51.79
-54.05
-58.04
-64.07
-71.24
-77.99
-82.94
-85.69
-87.09
-88.83
-92.57
-99.11
-107.77
-116.36
-121.83
-121.27
-112.88
-96.67
-74.66
-50.66
-29.39
-15.29
-11.07
-16.69
-29.04
-42.75
-52.08
-52.93
-44.37
-28.84
-11.03
4.19
13.58
16.47
14.45
10.16
6.11
3.82
3.80
5.81
9.24
13.14
16.35
17.53
15.59
10.20
2.20
-6.38
-12.94
-15.17
-11.92
-3.59
8.10
20.72
31.91
40.00
44.27
45.04
43.41
40.94
39.25
39.58
42.43
47.46
53.64
59.45
63.34
64.04
61.00
54.53
46.00
37.39
30.93
28.41
30.76
37.69
47.70
58.22
66.10
68.32
62.86
49.57
30.52
9.60
-8.60
-20.30
-23.79
-19.60
-9.63
4.18
20.82
40.20
62.12
85.15
106.20
121.03
125.54
117.14
95.51
62.63
22.17
-21.24
-62.30
-95.45
-115.50
-118.77
-104.61
-76.19
-40.09
-4.63
22.68
37.18
38.10
27.91
11.02
-7.89
-25.09
-38.20
-46.20
-49.03
-47.30
-42.06
-34.70
-26.58
-18.91
-12.45
-7.35
-3.12
1.15
6.44
13.25
21.22
29.17
35.49
38.92
39.06
36.63
33.11
30.05
28.57
29.00
30.97
33.66
36.25
38.19
39.44
40.36
41.49
43.29
45.90
49.11
52.54
55.80
58.61
60.70
61.64
60.74
57.27
50.91
42.17
32.56
24.21
18.97
17.64
19.35
21.69
21.62
16.65
5.90
-9.41
-26.33
-41.42
-51.93
-57.14
-58.91
-61.23
-69.09
-87.28
-119.10
-165.49
-224.33
-290.12
-354.37
-407.26
-439.92
-446.95
-428.00
-387.36
-331.87
-268.18
-200.85
-132.31
-64.34
0.26
56.93
100.35
126.42
134.04
125.82
107.42
85.98
68.15
58.69
59.35
69.10
85.00
103.54
121.87
138.27
151.90
162.07
167.68
167.30
160.04
146.51
129.04
111.13
96.13
85.96
80.47
77.79
75.16
70.23
61.88
50.60
38.29
27.34
19.69
15.97
15.29
15.68
15.00
11.93
6.41
-0.38
-6.82
-11.61
-14.36
-15.62
-16.26
-16.85
-17.19
-16.52
-13.99
-9.27
-2.81
4.36
11.04
16.45
20.32
22.85
24.43
25.34
25.70
25.56
24.93
23.87
22.39
20.47
18.10
15.38
12.67
10.50
9.37
9.59
10.96
12.98
14.99
16.49
17.39
17.90
18.39
19.09
19.93
20.50
20.29
18.92
16.38
13.17
10.00
7.53
5.98
4.99
3.78
1.62
-1.78
-5.98
-10.00
-12.72
-13.41
-11.95
-8.79
-4.63
-0.29
3.39
5.53
5.31
2.24
-3.43
-10.66
-17.84
-23.54
-27.10
-28.84
-29.87
-31.25
-33.27
-35.15
-35.38
-32.64
-26.79
-19.38
-13.16
-11.00
-14.33
-22.33
-32.18
-40.37
-44.30
-43.40
-39.06
-33.55
-28.64
-24.84
-21.49
-17.66
-13.00
-8.04
-3.78
-0.93
0.65
1.92
4.11
8.12
13.95
20.74
27.11
31.70
33.77
33.44
31.54
29.29
27.62
26.85
26.66
26.32
25.13
22.80
19.57
16.08
13.10
11.36
11.23
12.76
15.75
19.73
24.13
28.31
31.70
33.82
34.42
33.44
30.98
27.35
23.00
18.58
14.82
12.55
12.45
14.98
20.21
27.70
36.63
45.88
54.36
61.15
65.64
67.57
66.93
63.85
58.65
51.80
44.02
36.24
29.48
24.61
22.16
22.13
24.06
27.19
30.60
33.41
34.86
34.53
32.33
28.55
23.76
18.63
13.67
9.14
5.00
1.12
-2.55
-5.93
-8.80
-10.99
-12.48
-13.47
-14.30
-15.27
-16.55
-18.25
-20.49
-23.53
-27.85
-33.97
-42.21
-52.50
-64.28
-76.58
-88.34
-98.70
-107.08
-113.26
-117.09
-118.47
-117.17
-113.06
-106.12
-96.61
-85.10
-72.45
-59.67
-47.78
-37.75
-30.33
-26.03
-24.94
-26.86
-31.24
-37.32
-44.20
-50.90
-56.41
-59.78
-60.30
-57.62
-51.99
-44.22
-35.46
-26.91
-19.55
-13.88
-9.98
-7.60
-6.35
-5.73
-5.22
-4.23
-2.17
1.37
6.52
12.91
19.70
25.72
29.76
30.94
28.99
24.30
17.83
10.76
4.12
-1.41
-5.57
-8.44
-10.19
-11.05
-11.24
-11.04
-10.80
-10.89
-11.55
-12.76
-14.28
-15.74
-16.83
-17.50
-17.96
-18.66
-20.10
-22.61
-26.29
-30.93
-36.12
-41.29
-45.83
-49.15
-50.85
-50.69
-48.77
-45.49
-41.48
-37.49
-34.18
-31.93
-30.72
-30.18
-29.75
-28.95
-27.58
-25.80
-24.05
-22.84
-22.52
-23.15
-24.53
-26.30
-28.04
-29.34
-29.83
-29.30
-27.64
-24.94
-21.51
-17.77
-14.16
-11.14
-9.05
-8.06
-8.19
-9.31
-11.16
-13.40
-15.68
-17.66
-19.09
-19.80
-19.82
-19.31
-18.57
-17.92
-17.54
-17.43
-17.27
-16.66
-15.25
-12.97
-10.13
-7.30
-5.12
-4.04
-4.22
-5.53
-7.62
-10.01
-12.17
-13.51
-13.59
-12.10
-9.12
-4.98
-0.24
4.53
8.90
12.66
15.70
17.98
19.42
19.99
19.79
19.07
18.21
17.51
17.08
16.75
16.18
15.01
13.10
10.54
7.75
5.20
3.30
2.27
2.07
2.44
3.05
3.50
3.45
2.73
1.33
-0.47
-2.23
-3.44
-3.77
-3.13
-1.74
0.04
1.89
3.56
4.95
6.01
6.64
6.82
6.62
6.28
6.16
6.61
7.61
8.84
9.77
9.92
9.14
7.66
5.93
4.37
3.14
2.09
0.99
-0.34
-1.89
-3.55
-5.16
-6.71
-8.28
-10.03
-12.09
-14.49
-17.19
-20.02
-22.78
-25.18
-26.88
-27.49
-26.66
-24.09
-19.65
-13.48
-5.99
2.15
10.12
17.22
22.95
27.17
29.98
31.61
32.31
32.32
31.87
31.23
30.66
30.27
30.00
29.52
28.48
26.66
24.15
21.28
18.46
15.94
13.67
11.38
8.71
5.50
1.84
-1.87
-5.15
-7.60
-9.04
-9.52
-9.23
-8.32
-6.88
-4.92
-2.44
0.51
3.70
6.90
9.94
12.77
15.48
18.11
20.57
22.60
23.92
24.38
24.08
23.43
22.84
22.57
22.59
22.65
22.42
21.70
20.55
19.29
18.26
17.77
17.91
18.62
19.72
21.02
22.42
23.87
25.41
27.07
28.73
30.24
31.29
31.61
30.95
29.18
26.29
22.39
17.77
12.79
7.92
3.62
0.30
-1.76
-2.43
-1.88
-0.49
1.14
2.38
2.77
2.13
0.64
-1.30
-3.25
-4.85
-5.96
-6.61
-6.86
-6.79
-6.37
-5.65
-4.72
-3.82
-3.30
-3.53
-4.72
-6.88
-9.68
-12.55
-14.78
-15.60
-14.39
-10.87
-5.22
1.81
9.08
15.18
18.89
19.49
17.02
12.31
6.67
1.53
-1.92
-3.01
-1.68
1.61
6.02
10.56
14.24
16.41
16.83
15.80
13.99
12.23
11.29
11.62
13.25
15.86
18.84
21.46
23.05
23.12
21.50
18.35
14.15
9.49
4.99
1.16
-1.70
-3.44
-4.05
-3.57
-2.15
-0.01
2.45
4.76
6.40
7.00
6.51
5.33
4.12
3.61
4.23
5.95
8.33
10.78
12.92
14.70
16.33
18.05
19.92
21.75
23.19
23.98
24.11
23.88
23.71
23.98
24.80
25.96
26.99
27.35
26.73
25.15
23.06
21.04
19.60
18.95
18.91
19.10
19.06
18.54
17.47
15.92
13.95
11.54
8.57
4.97
0.81
-3.58
-7.75
-11.29
-13.94
-15.77
-17.00
-17.92
-18.66
-19.26
-19.66
-19.87
-20.02
-20.35
-21.11
-22.40
-24.17
-26.23
-28.28
-30.12
-31.60
-32.73
-33.61
-34.32
-34.93
-35.37
-35.59
-35.50
-35.10
-34.44
-33.65
-32.83
-32.08
-31.42
-30.88
-30.55
-30.48
-30.62
-30.73
-30.42
-29.10
-26.17
-21.36
-14.90
-7.61
-0.75
4.39
6.95
6.67
3.92
-0.46
-5.43
-9.83
-12.41
-12.00
-7.72
0.59
12.15
25.17
37.27
46.25
50.62
50.03
45.21
37.55
28.65
19.84
12.04
5.64
0.68
-2.99
-5.66
-7.66
-9.33
-10.94
-12.65
-14.43
-16.02
-17.03
-17.02
-15.72
-13.12
-9.56
-5.55
-1.74
1.39
3.51
4.65
5.03
5.02
4.93
4.93
5.01
5.06
5.04
4.96
4.91
5.01
5.35
5.93
6.77
7.80
8.96
10.09
10.97
11.39
11.19
10.31
8.81
6.84
4.60
2.27
0.05
-1.88
-3.34
-4.28
-4.67
-4.61
-4.16
-3.28
-1.78
0.58
3.93
8.19
12.92
17.42
20.90
22.69
22.41
20.04
15.92
10.55
4.53
-1.53
-7.07
-11.61
-14.75
-16.33
-16.39
-15.23
-13.39
-11.46
-9.98
-9.22
-9.22
-9.80
-10.76
-11.99
-13.48
-15.30
-17.38
-19.52
-21.30
-22.30
-22.23
-21.06
-19.02
-16.52
-13.89
-11.27
-8.67
-5.97
-3.12
-0.19
2.64
5.16
7.33
9.26
11.26
13.72
16.95
21.08
25.99
31.31
36.48
40.92
44.17
45.97
46.32
45.42
43.63
41.33
38.83
36.27
33.56
30.39
26.35
20.99
14.22
6.38
-1.53
-8.12
-11.96
-12.07
-8.34
-1.58
6.69
14.68
20.80
24.04
23.99
20.77
14.80
6.63
-3.12
-13.75
-24.45
-34.44
-43.04
-49.88
-55.00
-58.78
-61.70
-64.04
-65.81
-66.64
-66.10
-64.01
-60.49
-56.09
-51.47
-47.16
-43.35
-39.84
-36.16
-31.78
-26.38
-19.87
-12.53
-4.84
2.68
9.56
15.57
20.74
25.28
29.48
33.69
38.17
43.21
49.11
56.19
64.62
74.24
84.36
93.83
101.28
105.53
106.05
103.18
97.99
92.00
86.69
83.06
81.40
81.39
82.16
82.64
81.77
78.70
73.02
64.83
54.80
44.02
33.74
25.08
18.76
15.00
13.46
13.36
13.64
13.11
10.77
5.90
-1.77
-12.17
-25.18
-40.71
-58.66
-78.53
-98.96
-117.51
-130.98
-136.30
-131.67
-117.54
-96.73
-73.72
-53.30
-39.12
-32.75
-33.54
-39.19
-46.72
-53.31
-57.00
-56.83
-52.74
-45.39
-35.91
-25.64
-15.83
-7.46
-0.98
3.70
7.01
9.53
11.71
13.73
15.53
16.99
18.04
18.87
19.81
21.29
23.65
26.96
30.96
35.12
38.77
41.32
42.42
42.01
40.38
38.04
35.48
33.19
31.47
30.42
29.97
29.93
30.02
29.99
29.67
29.02
28.08
26.78
24.86
21.85
17.14
10.30
1.35
-8.97
-19.31
-28.01
-33.65
-35.54
-33.89
-29.64
-24.19
-18.78
-14.33
-11.19
-9.25
-8.20
-7.66
-7.24
-6.63
-5.54
-3.79
-1.39
1.37
3.95
5.73
6.19
5.12
2.63
-0.82
-4.55
-7.92
-10.33
-11.48
-11.28
-9.96
-7.96
-5.90
-4.43
-4.01
-4.90
-6.98
-9.86
-12.95
-15.60
-17.26
-17.56
-16.40
-13.91
-10.45
-6.54
-2.77
0.28
2.18
2.78
2.20
0.80
-0.88
-2.31
-3.12
-3.21
-2.70
-1.88
-1.07
-0.58
-0.54
-0.98
-1.86
-3.14
-4.68
-6.29
-7.64
-8.35
-8.12
-6.94
-5.04
-2.87
-0.91
0.53
1.30
1.50
1.28
0.80
0.26
-0.12
-0.16
0.25
1.08
2.13
3.19
4.11
4.91
5.75
6.74
7.87
8.94
9.69
9.89
9.51
8.71
7.78
6.96
6.39
6.07
5.91
5.79
5.54
5.08
4.33
3.31
2.14
0.93
-0.18
-1.19
-2.16
-3.18
-4.27
-5.38
-6.36
-7.01
-7.16
-6.71
-5.63
-4.01
-2.07
-0.14
1.43
2.39
2.69
2.50
2.07
1.66
1.36
1.13
0.88
0.59
0.32
0.18
0.19
0.30
0.36
0.18
-0.24
-0.84
-1.43
-1.84
-2.00
-2.01
-2.04
-2.34
-3.05
-4.14
-5.41
-6.60
-7.45
-7.84
-7.81
-7.46
-6.91
-6.14
-5.11
-3.74
-2.06
-0.27
1.31
2.36
2.72
2.50
2.00
1.60
1.60
2.09
2.96
3.97
4.87
5.50
5.82
5.87
5.82
5.83
5.99
6.27
6.46
6.32
5.61
4.30
2.58
0.85
-0.43
-0.99
-0.84
-0.28
0.21
0.19
-0.53
-1.73
-2.81
-2.99
-1.52
1.92
7.04
12.88
18.02
21.08
21.34
19.13
15.87
13.49
13.59
16.59
21.55
26.76
30.79
33.45
36.03
40.58
48.76
60.82
75.44
90.36
103.07
111.36
113.54
108.74
97.52
82.51
68.42
60.74
63.34
76.29
94.93
111.40
117.67
108.77
84.62
49.66
10.80
-25.11
-53.06
-70.54
-77.11
-73.83
-62.68
-46.14
-26.92
-7.71
9.31
22.63
31.64
36.50
37.92
36.84
34.22
30.71
26.69
22.39
18.05
13.95
10.41
7.66
5.75
4.66
4.27
4.44
5.01
5.77
6.57
7.35
8.26
9.54
11.45
14.00
16.96
19.91
22.44
24.40
25.93
27.31
28.78
30.43
32.26
34.29
36.59
39.30
42.53
46.24
50.27
54.39
58.34
61.87
64.75
66.71
67.48
66.92
65.07
62.21
58.71
54.87
50.57
45.24
37.96
27.87
14.78
-0.65
-16.86
-31.95
-44.29
-53.05
-58.33
-60.95
-62.03
-62.56
-63.26
-64.42
-66.02
-67.67
-68.68
-68.24
-65.64
-60.55
-53.19
-44.19
-34.39
-24.45
-14.79
-5.53
3.28
11.42
18.30
22.98
24.28
21.10
12.84
-0.18
-16.61
-34.29
-50.82
-64.31
-73.87
-79.80
-83.19
-85.45
-87.77
-90.78
-94.63
-99.08
-103.63
-107.62
-110.41
-111.57
-111.08
-109.49
-107.81
-107.15
-108.28
-111.14
-114.69
-116.94
-115.50
-108.40
-95.09
-77.09
-58.05
-42.78
-35.80
-39.66
-54.21
-76.89
-103.63
-129.95
-151.52
-164.62
-166.62
-156.86
-137.38
-112.80
-89.03
-71.04
-60.88
-57.26
-56.70
-55.74
-52.59
-47.48
-41.56
-35.23
-27.35
-15.51
2.36
26.53
54.66
82.17
103.74
115.15
114.72
104.03
87.23
69.54
55.43
47.33
45.37
48.08
53.61
60.69
68.74
77.35
85.53
91.28
91.93
85.09
69.78
47.20
20.58
-5.78
-27.88
-43.19
-51.20
-52.98
-50.49
-45.68
-40.07
-34.58
-29.84
-26.26
-24.12
-23.44
-23.98
-25.20
-26.41
-26.95
-26.33
-24.48
-21.69
-18.60
-15.94
-14.15
-13.17
-12.50
-11.36
-9.21
-5.95
-1.99
1.93
5.11
7.15
8.05
8.06
7.57
6.88
6.14
5.36
4.51
3.62
2.81
2.25
2.01
2.02
2.07
1.84
1.08
-0.26
-1.94
-3.62
-4.88
-5.45
-5.26
-4.48
-3.38
-2.28
-1.40
-0.92
-0.97
-1.63
-2.93
-4.81
-7.04
-9.31
-11.20
-12.42
-12.81
-12.41
-11.40
-10.03
-8.49
-6.94
-5.43
-3.95
-2.47
-0.95
0.57
1.97
3.11
3.85
4.10
3.89
3.27
2.34
1.18
-0.10
-1.33
-2.32
-2.87
-2.91
-2.53
-2.01
-1.70
-1.84
-2.53
-3.62
-4.87
-5.99
-6.74
-6.93
-6.46
-5.28
-3.43
-1.06
1.58
4.26
6.75
9.00
11.07
13.13
15.33
17.73
20.18
22.32
23.67
23.77
22.46
19.94
16.74
13.55
10.91
9.01
7.77
6.91
6.24
5.73
5.40
5.27
5.19
4.89
4.20
3.07
1.67
0.21
-1.19
-2.62
-4.31
-6.47
-9.03
-11.57
-13.36
-13.56
-11.62
-7.50
-1.83
4.24
9.42
12.64
13.46
12.09
9.21
5.66
2.11
-0.99
-3.32
-4.51
-4.16
-1.98
1.93
6.96
12.09
16.28
18.86
19.77
19.49
18.70
17.96
17.49
17.22
16.89
16.33
15.43
14.13
12.39
10.13
7.25
3.77
-0.16
-4.17
-7.80
-10.57
-12.22
-12.71
-12.29
-11.30
-10.10
-8.94
-7.87
-6.87
-5.83
-4.74
-3.64
-2.65
-1.93
-1.61
-1.75
-2.25
-2.93
-3.41
-3.31
-2.36
-0.48
2.09
4.84
7.21
8.78
9.39
9.19
8.51
7.68
6.92
6.30
5.78
5.24
4.57
3.71
2.66
1.48
0.25
-0.89
-1.87
-2.62
-3.17
-3.51
-3.60
-3.38
-2.80
-1.86
-0.70
0.47
1.50
2.28
2.79
3.08
3.18
3.16
3.07
2.98
2.93
3.00
3.18
3.48
3.84
4.20
4.45
4.50
4.29
3.90
3.48
3.17
3.05
3.00
2.80
2.21
1.11
-0.45
-2.24
-4.02
-5.58
-6.83
-7.74
-8.27
-8.36
-7.94
-6.99
-5.61
-3.98
-2.30
-0.68
0.82
2.21
3.45
4.46
5.09
5.26
5.01
4.50
3.98
3.60
3.45
3.52
3.83
4.39
5.24
6.22
7.04
7.33
6.87
5.73
4.25
2.88
1.98
1.60
1.49
1.27
0.66
-0.39
-1.76
-3.26
-4.77
-6.23
-7.56
-8.56
-8.94
-8.37
-6.72
-4.20
-1.27
1.49
3.68
5.18
6.20
7.04
7.88
8.69
9.24
9.32
8.90
8.13
7.28
6.61
6.25
6.18
6.36
6.68
7.09
7.49
7.77
7.80
7.46
6.67
5.42
3.82
2.05
0.39
-0.94
-1.84
-2.39
-2.90
-3.68
-4.94
-6.62
-8.38
-9.71
-10.11
-9.30
-7.30
-4.37
-0.98
2.39
5.36
7.64
9.13
9.82
9.76
9.10
8.01
6.79
5.80
5.39
5.77
6.90
8.47
9.99
11.03
11.30
10.83
9.87
8.67
7.43
6.21
4.98
3.71
2.47
1.31
0.27
-0.67
-1.59
-2.56
-3.59
-4.58
-5.45
-6.12
-6.62
-6.99
-7.16
-7.06
-6.51
-5.44
-3.93
-2.19
-0.44
1.11
2.37
3.37
4.13
4.79
5.39
6.06
6.85
7.75
8.70
9.48
9.91
9.84
9.32
8.55
7.84
7.50
7.65
8.18
8.67
8.72
8.00
6.54
4.62
2.75
1.36
0.64
0.47
0.52
0.46
0.08
-0.58
-1.39
-2.11
-2.57
-2.63
-2.21
-1.27
0.13
1.83
3.52
4.84
5.56
5.71
5.55
5.41
5.58
6.03
6.55
6.92
7.01
6.91
6.84
6.90
7.03
7.03
6.70
6.02
5.13
4.21
3.38
2.55
1.58
0.35
-1.07
-2.47
-3.61
-4.36
-4.72
-4.87
-4.99
-5.23
-5.70
-6.35
-7.15
-7.93
-8.46
-8.52
-7.88
-6.51
-4.58
-2.44
-0.45
1.08
2.06
2.57
2.73
2.63
2.33
1.84
1.28
0.86
0.79
1.19
1.97
2.86
3.50
3.62
3.18
2.34
1.40
0.62
0.17
0.11
0.36
0.84
1.42
1.96
2.30
2.31
1.87
0.97
-0.34
-1.88
-3.38
-4.47
-4.78
-4.05
-2.28
0.16
2.64
4.47
5.18
4.73
3.47
2.02
0.91
0.45
0.57
1.07
1.66
2.18
2.52
2.70
2.71
2.59
2.36
2.09
1.81
1.45
0.87
-0.05
-1.34
-2.82
-4.21
-5.20
-5.64
-5.56
-5.19
-4.76
-4.42
-4.26
-4.33
-4.60
-5.07
-5.62
-5.92
-5.60
-4.26
-1.71
1.87
5.96
9.83
12.83
14.55
14.92
14.17
12.74
11.14
9.79
8.98
8.80
9.06
9.43
9.59
9.35
8.73
7.96
7.29
6.89
6.70
6.50
6.03
5.10
3.62
1.59
-0.93
-3.91
-7.22
-10.72
-14.19
-17.41
-20.17
-22.27
-23.45
-23.43
-21.92
-18.79
-14.23
-8.76
-3.16
1.79
5.59
8.17
9.86
11.14
12.41
13.84
15.33
16.66
17.62
18.12
18.15
17.78
17.04
15.90
14.33
12.32
9.95
7.34
4.68
2.14
-0.17
-2.28
-4.24
-6.18
-8.14
-10.10
-11.97
-13.70
-15.22
-16.51
-17.41
-17.62
-16.78
-14.66
-11.30
-7.08
-2.60
1.57
5.03
7.69
9.61
10.90
11.57
11.62
11.09
10.12
9.01
7.98
7.18
6.60
6.07
5.36
4.31
2.84
1.04
-0.85
-2.50
-3.63
-4.03
-3.75
-2.97
-2.01
-1.20
-0.80
-0.98
-1.78
-3.08
-4.67
-6.22
-7.42
-8.07
-8.10
-7.62
-6.78
-5.72
-4.49
-3.07
-1.51
0.09
1.51
2.55
3.09
3.14
2.80
2.16
1.30
0.26
-0.87
-1.97
-2.85
-3.32
-3.33
-2.89
-2.19
-1.46
-0.88
-0.56
-0.46
-0.46
-0.40
-0.09
0.62
1.70
3.00
4.18
4.87
4.75
3.75
2.01
-0.06
-1.97
-3.27
-3.60
-2.71
-0.41
3.37
8.51
14.56
20.82
26.48
30.75
33.24
33.96
33.31
31.81
29.91
27.85
25.65
23.24
20.56
17.56
14.28
10.85
7.40
4.07
1.00
-1.76
-4.22
-6.50
-8.69
-10.82
-12.86
-14.76
-16.50
-18.18
-19.90
-21.69
-23.48
-25.11
-26.38
-27.09
-27.13
-26.36
-24.74
-22.31
-19.23
-15.85
-12.61
-9.93
-7.99
-6.73
-5.81
-4.81
-3.29
-0.96
2.23
6.05
9.91
13.02
14.58
14.08
11.52
7.50
2.97
-1.05
-3.86
-5.22
-5.36
-4.78
-3.97
-3.26
-2.77
-2.43
-2.07
-1.48
-0.47
1.07
3.11
5.44
7.63
9.22
9.75
9.04
7.23
4.74
2.19
0.14
-1.11
-1.58
-1.56
-1.35
-1.15
-0.88
-0.32
0.81
2.59
4.86
7.22
9.16
10.16
9.80
7.85
4.32
-0.37
-5.38
-9.53
-11.66
-11.03
-7.66
-2.37
3.55
8.73
12.15
13.29
12.10
8.87
4.13
-1.35
-6.61
-10.64
-12.68
-12.48
-10.35
-7.08
-3.66
-0.92
0.64
0.94
0.30
-0.78
-1.80
-2.43
-2.66
-2.73
-3.05
-3.93
-5.48
-7.54
-9.79
-11.89
-13.63
-14.96
-16.01
-17.07
-18.43
-20.41
-23.13
-26.45
-29.94
-32.94
-34.74
-34.86
-33.20
-30.11
-26.28
-22.39
-18.82
-15.44
-11.65
-6.65
0.13
8.68
18.33
27.98
36.46
42.96
47.27
49.66
50.67
50.81
50.31
49.17
47.30
44.70
41.58
38.31
35.29
32.71
30.52
28.44
26.18
23.52
20.45
17.09
13.65
10.22
6.87
3.63
0.55
-2.26
-4.66
-6.54
-7.88
-8.71
-9.17
-9.46
-9.75
-10.21
-10.93
-11.89
-12.92
-13.74
-14.03
-13.60
-12.45
-10.81
-9.04
-7.46
-6.24
-5.32
-4.52
-3.67
-2.75
-1.91
-1.32
-1.09
-1.13
-1.18
-1.00
-0.46
0.39
1.33
2.15
2.68
2.93
2.99
2.98
3.04
3.19
3.35
3.47
3.43
3.19
2.80
2.36
2.02
1.83
1.70
1.44
0.81
-0.32
-1.83
-3.45
-4.83
-5.65
-5.77
-5.19
-4.11
-2.76
-1.43
-0.30
0.56
1.11
1.44
1.58
1.57
1.46
1.35
1.40
1.80
2.64
3.79
5.03
6.07
6.68
6.84
6.62
6.08
5.20
3.98
2.51
1.04
-0.07
-0.53
-0.35
0.19
0.63
0.61
0.04
-0.88
-1.81
-2.49
-2.87
-2.98
-2.92
-2.67
-2.15
-1.34
-0.37
0.49
1.01
1.10
0.97
1.02
1.57
2.69
4.09
5.27
5.80
5.48
4.46
3.16
2.02
1.32
1.10
1.31
1.77
2.42
3.20
4.04
4.82
5.41
5.69
5.66
5.38
4.97
4.43
3.76
2.97
2.10
1.29
0.67
0.29
0.11
0.01
-0.14
-0.35
-0.56
-0.67
-0.52
-0.02
0.86
2.07
3.43
4.73
5.73
6.26
6.26
5.73
4.82
3.71
2.63
1.78
1.29
1.14
1.22
1.31
1.26
0.96
0.48
-0.00
-0.38
-0.62
-0.82
-1.13
-1.67
-2.47
-3.48
-4.64
-5.87
-7.12
-8.31
-9.34
-10.08
-10.41
-10.24
-9.58
-8.53
-7.22
-5.79
-4.35
-2.98
-1.76
-0.71
0.14
0.74
1.08
1.16
1.06
0.93
0.91
1.17
1.74
2.53
3.32
3.91
4.17
4.07
3.65
3.04
2.29
1.46
0.60
-0.23
-0.99
-1.64
-2.18
-2.70
-3.26
-3.98
-4.92
-6.12
-7.50
-8.94
-10.17
-10.89
-10.83
-9.95
-8.38
-6.49
-4.60
-2.95
-1.56
-0.35
0.74
1.71
2.43
2.76
2.66
2.25
1.77
1.47
1.51
1.95
2.71
3.69
4.70
5.57
6.08
6.00
5.20
3.69
1.64
-0.61
-2.68
-4.26
-5.24
-5.69
-5.77
-5.71
-5.66
-5.77
-6.09
-6.65
-7.43
-8.25
-8.85
-8.89
-8.13
-6.62
-4.68
-2.81
-1.47
-0.83
-0.80
-1.07
-1.35
-1.51
-1.60
-1.71
-1.84
-1.92
-1.77
-1.28
-0.54
0.28
0.94
1.31
1.41
1.32
1.14
0.93
0.69
0.37
-0.02
-0.47
-0.94
-1.37
-1.70
-1.93
-2.12
-2.40
-2.91
-3.70
-4.64
-5.50
-5.95
-5.75
-4.82
-3.26
-1.33
0.72
2.66
4.35
5.69
6.61
7.12
7.37
7.57
7.90
8.51
9.32
10.21
11.01
11.63
12.07
12.38
12.53
12.46
12.05
11.24
10.02
8.43
6.59
4.61
2.55
0.52
-1.34
-2.86
-3.94
-4.60
-5.04
-5.48
-6.10
-6.91
-7.75
-8.38
-8.55
-8.15
-7.17
-5.69
-3.90
-2.10
-0.58
0.41
0.87
1.06
1.48
2.60
4.62
7.37
10.36
13.07
15.03
16.11
16.30
15.75
14.60
12.93
10.85
8.51
6.13
3.99
2.31
1.17
0.49
-0.02
-0.70
-1.84
-3.46
-5.33
-7.05
-8.29
-8.94
-9.11
-9.03
-8.79
-8.34
-7.47
-6.00
-3.96
-1.64
0.56
2.27
3.31
3.75
3.73
3.44
2.93
2.23
1.35
0.40
-0.37
-0.69
-0.37
0.57
1.90
3.23
4.19
4.58
4.29
3.44
2.14
0.61
-0.96
-2.31
-3.26
-3.79
-4.04
-4.33
-4.95
-6.03
-7.45
-8.89
-9.96
-10.46
-10.38
-9.89
-9.15
-8.29
-7.34
-6.35
-5.46
-4.87
-4.78
-5.30
-6.32
-7.53
-8.58
-9.19
-9.23
-8.77
-8.06
-7.37
-6.93
-6.81
-6.94
-7.20
-7.47
-7.71
-8.07
-8.68
-9.67
-10.96
-12.32
-13.42
-13.98
-14.00
-13.68
-13.40
-13.48
-14.06
-15.00
-15.95
-16.43
-15.86
-13.61
-9.12
-2.09
7.20
17.84
28.37
37.23
43.32
46.39
47.01
46.19
44.84
43.50
42.27
41.11
40.18
39.82
40.42
41.99
44.08
45.84
46.45
45.53
43.31
40.44
37.65
35.39
33.60
31.82
29.54
26.36
22.19
17.27
11.91
6.43
1.03
-4.13
-8.88
-12.98
-16.16
-18.27
-19.35
-19.63
-19.48
-19.21
-19.10
-19.48
-20.81
-23.75
-28.92
-36.67
-46.60
-57.45
-67.14
-73.37
-74.29
-69.09
-58.42
-44.17
-28.88
-14.95
-3.78
4.45
10.55
15.74
21.00
26.73
32.88
39.31
46.02
53.06
60.21
66.67
71.17
72.61
70.65
66.15
60.80
56.35
53.73
52.63
51.85
49.97
46.18
40.59
34.06
27.77
22.58
18.87
16.56
15.34
14.89
14.94
15.22
15.31
14.66
12.62
8.65
2.64
-5.06
-13.64
-22.15
-29.85
-36.48
-42.20
-47.43
-52.54
-57.61
-62.41
-66.50
-69.37
-70.64
-70.15
-67.98
-64.48
-60.22
-55.79
-51.76
-48.42
-45.81
-43.70
-41.73
-39.63
-37.25
-34.65
-31.96
-29.34
-26.85
-24.52
-22.31
-20.20
-18.17
-16.19
-14.24
-12.27
-10.35
-8.58
-7.14
-6.28
-6.10
-6.58
-7.52
-8.58
-9.46
-9.93
-9.83
-9.16
-7.95
-6.38
-4.65
-3.11
-2.09
-1.86
-2.52
-3.94
-5.76
-7.45
-8.51
-8.64
-7.78
-6.08
-3.92
-1.67
0.34
1.91
2.94
3.49
3.67
3.69
3.86
4.47
5.76
7.78
10.39
13.28
16.05
18.37
20.06
21.13
21.64
21.65
21.16
20.10
18.47
16.35
13.93
11.47
9.13
6.94
4.89
2.93
1.08
-0.57
-1.95
-3.03
-3.84
-4.41
-4.79
-4.93
-4.86
-4.70
-4.73
-5.36
-6.97
-9.82
-13.85
-18.68
-23.64
-27.94
-30.86
-31.92
-30.99
-28.37
-24.66
-20.65
-16.94
-13.86
-11.38
-9.19
-6.90
-4.18
-0.84
3.18
7.82
13.00
18.52
24.03
29.06
33.10
35.79
37.06
37.14
36.47
35.39
34.03
32.33
30.16
27.57
24.82
22.36
20.57
19.53
18.99
18.43
17.42
15.77
13.69
11.56
9.69
8.19
6.87
5.52
4.10
2.82
2.11
2.38
3.74
5.95
8.58
11.10
13.23
14.91
16.25
17.36
18.26
18.87
19.10
18.93
18.45
17.83
17.20
16.62
16.07
15.40
14.48
13.17
11.47
9.49
7.58
6.10
5.40
5.63
6.60
7.87
8.85
9.10
8.41
6.84
4.69
2.25
-0.26
-2.79
-5.38
-8.12
-11.06
-14.18
-17.41
-20.59
-23.49
-25.85
-27.43
-28.16
-28.15
-27.75
-27.35
-27.30
-27.71
-28.46
-29.25
-29.82
-30.04
-29.96
-29.77
-29.62
-29.57
-29.55
-29.39
-28.83
-27.61
-25.58
-22.78
-19.48
-16.08
-12.99
-10.44
-8.47
-6.95
-5.73
-4.79
-4.15
-3.83
-3.61
-3.17
-2.17
-0.55
1.43
3.26
4.39
4.57
3.92
2.87
1.85
1.17
0.87
0.82
0.84
0.83
0.75
0.59
0.28
-0.28
-1.23
-2.58
-4.14
-5.59
-6.55
-6.72
-6.02
-4.66
-2.98
-1.38
-0.17
0.54
0.82
0.82
0.68
0.46
0.14
-0.34
-0.99
-1.70
-2.32
-2.68
-2.63
-2.15
-1.30
-0.16
1.16
2.61
4.13
5.70
7.24
8.67
9.90
10.84
11.37
11.45
11.04
10.13
8.73
6.92
4.75
2.29
-0.38
-3.18
-5.95
-8.43
-10.26
-11.11
-10.69
-9.00
-6.29
-3.00
0.39
3.46
6.00
7.99
9.45
10.48
11.10
11.34
11.20
10.68
9.80
8.57
7.06
5.41
3.78
2.34
1.16
0.20
-0.68
-1.56
-2.49
-3.43
-4.34
-5.20
-6.03
-6.84
-7.62
-8.23
-8.50
-8.33
-7.74
-6.90
-5.99
-5.19
-4.52
-3.88
-3.09
-2.01
-0.65
0.85
2.23
3.24
3.73
3.72
3.40
3.00
2.76
2.73
2.90
3.18
3.48
3.78
4.09
4.40
4.61
4.56
4.07
3.08
1.65
-0.03
-1.67
-3.02
-3.96
-4.50
-4.73
-4.77
-4.76
-4.86
-5.22
-5.89
-6.86
-7.93
-8.81
-9.19
-8.84
-7.76
-6.11
-4.19
-2.28
-0.59
0.79
1.80
2.37
2.45
2.03
1.22
0.24
-0.59
-1.04
-1.00
-0.49
0.33
1.26
2.13
2.83
3.29
3.51
3.60
3.73
4.07
4.69
5.46
6.07
6.14
5.44
3.99
2.12
0.25
-1.25
-2.24
-2.90
-3.54
-4.46
-5.76
-7.32
-8.92
-10.28
-11.27
-11.86
-12.08
-12.02
-11.71
-11.15
-10.30
-9.13
-7.63
-5.87
-3.95
-1.95
0.01
1.93
3.77
5.51
7.10
8.44
9.43
9.94
9.94
9.38
8.23
6.42
3.97
1.08
-1.83
-4.22
-5.62
-5.84
-5.05
-3.68
-2.25
-1.11
-0.35
0.21
0.78
1.58
2.74
4.29
6.31
8.78
11.64
14.73
17.82
20.70
23.29
25.69
28.17
31.02
34.46
38.49
42.92
47.44
51.69
55.39
58.37
60.55
61.90
62.36
61.79
59.98
56.72
51.91
45.69
38.48
30.81
23.22
16.08
9.52
3.55
-1.91
-6.88
-11.38
-15.45
-19.18
-22.66
-25.89
-28.84
-31.40
-33.46
-34.98
-35.99
-36.57
-36.76
-36.61
-36.08
-35.19
-33.95
-32.45
-30.82
-29.20
-27.75
-26.59
-25.76
-25.18
-24.69
-24.11
-23.27
-22.08
-20.55
-18.75
-16.84
-14.98
-13.33
-11.95
-10.78
-9.65
-8.40
-6.99
-5.57
-4.41
-3.81
-3.90
-4.66
-5.89
-7.42
-9.13
-10.96
-12.83
-14.48
-15.54
-15.60
-14.42
-12.12
-9.09
-5.89
-3.08
-1.02
0.14
0.51
0.34
-0.01
-0.19
0.04
0.82
2.05
3.48
4.83
5.81
6.27
6.25
5.91
5.47
5.11
4.83
4.53
4.02
3.20
2.15
1.06
0.20
-0.29
-0.44
-0.45
-0.56
-0.92
-1.56
-2.37
-3.20
-3.89
-4.31
-4.29
-3.72
-2.54
-0.77
1.38
3.65
5.83
7.73
9.27
10.40
11.07
11.27
11.11
10.79
10.58
10.68
11.13
11.80
12.47
12.95
13.15
13.17
13.12
13.12
13.13
13.08
12.82
12.31
11.48
10.22
8.33
5.55
1.73
-3.12
-8.72
-14.60
-20.28
-25.42
-29.80
-33.34
-35.92
-37.43
-37.78
-36.97
-35.22
-32.81
-30.07
-27.19
-24.30
-21.43
-18.62
-15.97
-13.50
-11.16
-8.81
-6.34
-3.63
-0.67
2.44
5.52
8.37
10.83
12.78
14.19
15.18
15.85
16.34
16.69
16.91
16.92
16.70
16.29
15.79
15.22
14.53
13.63
12.42
10.89
9.13
7.30
5.61
4.18
3.20
2.79
3.09
4.05
5.47
6.96
8.11
8.60
8.36
7.51
6.32
5.04
3.85
2.85
2.00
1.24
0.52
-0.21
-0.93
-1.59
-2.18
-2.70
-3.20
-3.78
-4.48
-5.29
-6.10
-6.78
-7.28
-7.60
-7.83
-8.05
-8.34
-8.72
-9.14
-9.57
-9.92
-10.13
-10.14
-9.88
-9.31
-8.37
-7.05
-5.35
-3.40
-1.36
0.49
1.97
2.94
3.45
3.61
3.56
3.35
3.01
2.62
2.25
2.08
2.17
2.53
2.99
3.34
3.45
3.34
3.15
3.05
3.06
3.05
2.80
2.10
0.93
-0.54
-2.04
-3.31
-4.23
-4.89
-5.48
-6.15
-6.93
-7.73
-8.38
-8.75
-8.81
-8.62
-8.18
-7.45
-6.32
-4.68
-2.58
-0.22
2.04
3.81
4.82
5.03
4.64
3.97
3.37
3.09
3.22
3.72
4.37
4.94
5.21
5.07
4.56
3.88
3.34
3.17
3.45
4.06
4.70
5.06
4.97
4.42
3.58
2.65
1.80
1.12
0.62
0.24
-0.11
-0.51
-1.05
-1.69
-2.27
-2.56
-2.37
-1.63
-0.48
0.88
2.21
3.39
4.37
5.18
5.83
6.31
6.58
6.63
6.49
6.16
5.70
5.14
4.50
3.80
3.07
2.31
1.57
0.90
0.33
-0.13
-0.52
-1.00
-1.64
-2.49
-3.44
-4.36
-5.17
-5.86
-6.57
-7.42
-8.50
-9.79
-11.21
-12.63
-13.89
-14.82
-15.23
-14.97
-14.04
-12.50
-10.53
-8.29
-5.84
-3.23
-0.56
1.98
4.11
5.58
6.34
6.55
6.49
6.48
6.66
7.05
7.53
7.94
8.16
8.10
7.74
7.10
6.27
5.38
4.56
3.88
3.29
2.66
1.86
0.89
-0.11
-0.96
-1.52
-1.81
-2.00
-2.30
-2.81
-3.50
-4.23
-4.81
-5.16
-5.28
-5.20
-5.00
-4.66
-4.21
-3.67
-3.14
-2.69
-2.36
-2.07
-1.75
-1.36
-0.95
-0.65
-0.57
-0.74
-1.09
-1.38
-1.39
-1.00
-0.19
0.93
2.26
3.68
5.16
6.60
7.88
8.78
9.15
8.99
8.46
7.84
7.41
7.30
7.33
7.18
6.51
5.15
3.21
0.97
-1.20
-3.04
-4.47
-5.56
-6.41
-7.10
-7.62
-7.93
-8.05
-8.08
-8.17
-8.47
-9.00
-9.67
-10.28
-10.65
-10.69
-10.42
-9.97
-9.42
-8.86
-8.28
-7.67
-7.03
-6.42
-5.86
-5.38
-4.90
-4.35
-3.63
-2.67
-1.46
0.09
2.02
4.39
7.17
10.22
13.22
15.81
17.67
18.63
18.75
18.26
17.54
16.95
16.76
17.06
17.82
18.88
20.02
21.01
21.63
21.74
21.25
20.22
18.83
17.31
15.96
14.96
14.38
14.11
13.96
13.69
13.11
12.07
10.45
8.07
4.79
0.56
-4.50
-9.98
-15.32
-19.89
-23.20
-25.06
-25.62
-25.26
-24.47
-23.71
-23.25
-23.13
-23.20
-23.14
-22.63
-21.48
-19.67
-17.32
-14.62
-11.75
-8.81
-5.86
-2.99
-0.36
1.80
3.23
3.85
3.76
3.22
2.54
1.95
1.57
1.48
1.77
2.57
4.06
6.30
9.13
12.19
14.95
17.01
18.18
18.58
18.52
18.27
18.00
17.60
16.82
15.44
13.42
10.98
8.54
6.64
5.76
6.20
7.95
10.75
14.10
17.40
20.10
21.93
22.89
23.30
23.63
24.35
25.75
27.81
30.33
32.92
35.20
36.88
37.73
37.70
36.84
35.31
33.29
30.94
28.26
25.08
21.13
16.18
10.17
3.41
-3.60
-10.27
-16.19
-21.20
-25.37
-28.79
-31.48
-33.28
-34.01
-33.65
-32.51
-31.16
-30.20
-29.97
-30.37
-30.96
-31.15
-30.53
-29.00
-26.83
-24.39
-21.99
-19.71
-17.45
-15.04
-12.50
-10.09
-8.23
-7.30
-7.38
-8.21
-9.21
-9.81
-9.62
-8.64
-7.14
-5.51
-3.99
-2.54
-0.90
1.26
4.08
7.47
11.11
14.57
17.50
19.70
21.19
22.09
22.68
23.36
24.64
27.09
31.11
36.68
43.13
49.18
53.13
53.44
49.21
40.62
28.90
15.98
3.89
-5.83
-12.54
-16.48
-18.52
-19.73
-20.99
-22.69
-24.85
-27.26
-29.65
-31.84
-33.70
-35.08
-35.81
-35.76
-34.87
-33.27
-31.20
-28.99
-26.84
-24.84
-22.94
-21.10
-19.31
-17.58
-15.93
-14.35
-12.80
-11.34
-10.05
-9.05
-8.39
-7.92
-7.35
-6.36
-4.79
-2.70
-0.44
1.56
3.07
4.08
4.85
5.70
6.79
8.07
9.23
9.93
9.94
9.29
8.26
7.26
6.65
6.51
6.73
6.94
6.76
5.93
4.48
2.69
1.01
-0.13
-0.45
0.10
1.33
2.93
4.58
6.01
6.97
7.26
6.72
5.32
3.21
0.68
-1.84
-3.96
-5.50
-6.50
-7.16
-7.74
-8.37
-8.90
-9.04
-8.52
-7.23
-5.32
-3.14
-1.09
0.57
1.79
2.72
3.49
4.17
4.68
4.89
4.76
4.44
4.14
4.10
4.38
4.89
5.47
6.03
6.63
7.40
8.46
9.76
11.07
12.09
12.65
12.87
13.08
13.66
14.73
16.16
17.50
18.37
18.54
18.13
17.36
16.48
15.48
14.10
12.02
9.10
5.51
1.69
-1.84
-4.72
-6.92
-8.62
-10.09
-11.49
-12.76
-13.77
-14.34
-14.46
-14.33
-14.21
-14.35
-14.87
-15.70
-16.60
-17.28
-17.50
-17.13
-16.28
-15.28
-14.63
-14.88
-16.40
-19.18
-22.75
-26.27
-28.80
-29.59
-28.36
-25.39
-21.36
-17.16
-13.58
-11.14
-10.04
-10.08
-10.83
-11.59
-11.66
-10.41
-7.60
-3.43
1.42
6.00
9.42
11.20
11.38
10.58
9.73
9.77
11.36
14.64
19.26
24.50
29.45
33.36
35.71
36.29
35.22
32.69
29.08
24.76
20.13
15.68
11.89
9.17
7.70
7.36
7.68
8.00
7.64
6.18
3.55
0.00
-3.99
-7.90
-11.22
-13.52
-14.47
-13.83
-11.55
-7.74
-2.71
3.13
9.27
15.21
20.34
24.11
26.01
25.75
23.35
19.16
13.85
8.19
2.94
-1.40
-4.65
-6.89
-8.33
-9.15
-9.37
-8.84
-7.40
-5.04
-2.03
1.10
3.82
5.72
6.76
7.18
7.39
7.72
8.26
8.88
9.25
9.05
8.04
6.13
3.41
0.07
-3.66
-7.48
-11.06
-14.09
-16.31
-17.61
-18.04
-17.76
-17.06
-16.26
-15.69
-15.58
-15.98
-16.76
-17.58
-18.09
-18.06
-17.53
-16.77
-16.12
-15.79
-15.66
-15.40
-14.64
-13.17
-11.06
-8.55
-5.92
-3.29
-0.58
2.39
5.83
9.75
14.05
18.43
22.49
25.84
28.13
29.14
28.79
27.18
24.64
21.69
18.95
16.94
15.94
15.68
15.45
14.22
11.09
5.72
-1.34
-8.81
-15.01
-18.56
-18.87
-16.30
-11.90
-6.94
-2.38
1.34
4.24
6.51
8.27
9.39
9.70
9.13
7.91
6.56
5.59
5.35
5.72
6.28
6.44
5.85
4.51
2.79
1.17
-0.01
-0.76
-1.34
-2.12
-3.31
-4.88
-6.64
-8.34
-9.90
-11.44
-13.26
-15.61
-18.59
-22.04
-25.60
-28.85
-31.48
-33.39
-34.67
-35.48
-36.04
-36.50
-36.95
-37.45
-37.88
-37.89
-36.89
-34.27
-29.63
-23.09
-15.31
-7.36
-0.28
5.20
8.78
10.49
10.44
8.78
5.65
1.35
-3.54
-8.23
-11.91
-14.03
-14.48
-13.59
-11.88
-9.94
-8.12
-6.47
-4.88
-3.17
-1.29
0.59
2.19
3.25
3.65
3.40
2.69
1.67
0.51
-0.62
-1.49
-1.86
-1.49
-0.28
1.73
4.30
7.09
9.84
12.42
14.81
16.99
18.93
20.49
21.54
22.04
22.02
21.61
20.99
20.28
19.55
18.83
18.14
17.50
16.95
16.52
16.25
16.13
16.05
15.85
15.32
14.34
12.98
11.50
10.25
9.47
9.21
9.17
9.02
8.47
7.55
6.53
5.79
5.55
5.77
6.17
6.46
6.52
6.45
6.55
7.16
8.46
10.37
12.59
14.67
16.13
16.64
16.05
14.57
12.70
11.16
10.57
11.17
12.58
13.88
13.95
12.01
7.96
2.52
-3.08
-7.67
-10.53
-11.57
-11.29
-10.35
-9.32
-8.45
-7.80
-7.23
-6.64
-6.00
-5.36
-4.82
-4.52
-4.62
-5.31
-6.75
-8.97
-11.80
-14.80
-17.40
-19.11
-19.71
-19.33
-18.40
-17.46
-16.87
-16.76
-16.96
-17.20
-17.22
-16.92
-16.37
-15.74
-15.29
-15.23
-15.76
-16.95
-18.73
-20.96
-23.34
-25.57
-27.39
-28.64
-29.30
-29.45
-29.25
-28.77
-28.05
-27.03
-25.68
-24.08
-22.38
-20.80
-19.48
-18.45
-17.58
-16.74
-15.83
-14.84
-13.77
-12.55
-10.95
-8.65
-5.39
-1.06
4.18
9.94
15.79
21.40
26.63
31.47
35.95
40.04
43.62
46.51
48.63
49.98
50.67
50.85
50.62
50.03
49.07
47.72
45.97
43.83
41.31
38.48
35.46
32.46
29.79
27.73
26.44
25.89
25.94
26.39
27.09
27.98
29.03
30.21
31.32
32.08
32.10
31.02
28.70
25.20
20.82
15.95
10.83
5.46
-0.38
-6.94
-14.29
-22.21
-30.17
-37.54
-43.79
-48.71
-52.37
-54.96
-56.68
-57.55
-57.49
-56.37
-54.18
-51.09
-47.50
-43.82
-40.38
-37.30
-34.49
-31.77
-29.08
-26.48
-24.09
-21.99
-20.00
-17.78
-15.00
-11.50
-7.46
-3.34
0.31
3.11
4.90
5.83
6.21
6.44
6.84
7.63
8.84
10.29
11.66
12.60
12.83
12.33
11.29
10.04
8.90
8.01
7.32
6.69
5.99
5.25
4.60
4.20
4.18
4.49
4.99
5.41
5.54
5.31
4.78
4.13
3.51
2.99
2.58
2.29
2.13
2.19
2.54
3.18
3.94
4.59
4.82
4.50
3.63
2.33
0.74
-1.02
-2.89
-4.80
-6.69
-8.49
-10.11
-11.51
-12.60
-13.25
-13.30
-12.71
-11.53
-9.98
-8.38
-6.95
-5.75
-4.66
-3.46
-2.04
-0.48
1.00
2.14
2.82
3.11
3.15
3.12
3.08
3.03
2.92
2.76
2.61
2.61
2.79
3.08
3.34
3.39
3.12
2.49
1.56
0.46
-0.71
-1.85
-2.88
-3.72
-4.25
-4.35
-3.91
-2.95
-1.62
-0.12
1.30
2.49
3.42
4.15
4.76
5.24
5.55
5.60
5.35
4.91
4.42
4.07
3.90
3.89
3.96
4.05
4.14
4.26
4.39
4.49
4.40
3.99
3.21
2.14
0.92
-0.26
-1.24
-1.94
-2.35
-2.47
-2.32
-1.91
-1.28
-0.49
0.38
1.24
2.05
2.79
3.49
4.10
4.52
4.61
4.22
3.37
2.20
1.01
0.10
-0.35
-0.34
-0.03
0.31
0.56
0.69
0.78
0.90
1.03
1.04
0.74
0.06
-0.87
-1.84
-2.55
-2.84
-2.72
-2.33
-1.89
-1.59
-1.49
-1.51
-1.54
-1.39
-0.99
-0.33
0.51
1.43
2.34
3.21
3.97
4.53
4.80
4.72
4.37
3.93
3.67
3.72
4.05
4.44
4.59
4.38
3.84
3.16
2.56
2.16
1.88
1.55
0.98
0.11
-0.99
-2.15
-3.17
-3.94
-4.45
-4.85
-5.24
-5.62
-5.91
-5.88
-5.44
-4.59
-3.48
-2.34
-1.35
-0.48
0.38
1.36
2.50
3.72
4.80
5.58
5.99
6.07
5.97
5.79
5.60
5.38
5.08
4.63
4.05
3.41
2.79
2.20
1.59
0.80
-0.22
-1.42
-2.55
-3.35
-3.60
-3.33
-2.73
-2.14
-1.84
-1.91
-2.27
-2.76
-3.22
-3.56
-3.75
-3.70
-3.26
-2.27
-0.62
1.56
3.91
5.97
7.30
7.75
7.49
6.92
6.52
6.56
7.03
7.72
8.29
8.54
8.43
8.05
7.58
7.13
6.76
6.48
6.35
6.37
6.53
6.74
6.83
6.61
5.98
4.95
3.62
2.19
0.80
-0.47
-1.66
-2.87
-4.17
-5.54
-6.84
-7.81
-8.22
-7.97
-7.15
-6.02
-4.90
-4.03
-3.55
-3.44
-3.64
-4.04
-4.55
-5.02
-5.25
-5.07
-4.44
-3.48
-2.50
-1.85
-1.77
-2.25
-3.10
-4.04
-4.83
-5.36
-5.68
-5.82
-5.83
-5.71
-5.45
-5.08
-4.70
-4.42
-4.32
-4.43
-4.67
-4.95
-5.16
-5.27
-5.27
-5.19
-5.04
-4.82
-4.50
-4.03
-3.42
-2.68
-1.88
-1.07
-0.29
0.44
1.17
1.89
2.63
3.38
4.13
4.93
5.79
6.69
7.51
8.07
8.17
7.70
6.68
5.32
3.86
2.57
1.59
0.94
0.51
0.13
-0.35
-1.08
-2.12
-3.47
-4.99
-6.39
-7.37
-7.71
-7.39
-6.61
-5.73
-5.06
-4.85
-5.15
-5.83
-6.72
-7.61
-8.31
-8.66
-8.58
-8.13
-7.49
-7.06
-7.18
-8.04
-9.62
-11.61
-13.65
-15.46
-16.98
-18.31
-19.64
-21.02
-22.34
-23.22
-23.27
-22.22
-20.11
-17.23
-14.08
-11.14
-8.82
-7.36
-6.83
-7.21
-8.28
-9.63
-10.56
-10.26
-7.98
-3.43
3.07
10.58
17.86
23.78
27.63
29.37
29.36
28.19
26.33
24.06
21.58
19.15
17.19
16.22
16.67
18.57
21.46
24.49
26.70
27.39
26.30
23.70
20.14
16.29
12.62
9.38
6.68
4.57
3.11
2.52
3.01
4.78
7.79
11.77
16.16
20.28
23.50
25.47
26.19
25.96
25.23
24.39
23.77
23.58
24.02
25.20
27.10
29.42
31.65
33.16
33.43
32.19
29.58
26.07
22.31
18.83
15.91
13.50
11.25
8.62
5.06
0.26
-5.80
-12.76
-19.92
-26.49
-31.67
-34.92
-36.01
-35.13
-32.75
-29.56
-26.26
-23.39
-21.33
-20.17
-19.81
-19.99
-20.36
-20.61
-20.52
-19.99
-19.03
-17.78
-16.41
-15.15
-14.10
-13.30
-12.71
-12.20
-11.64
-10.97
-10.16
-9.25
-8.32
-7.44
-6.71
-6.18
-5.91
-5.86
-5.88
-5.74
-5.23
-4.25
-2.91
-1.45
-0.15
0.83
1.47
1.87
2.13
2.32
2.39
2.30
1.99
1.47
0.72
-0.21
-1.29
-2.47
-3.62
-4.66
-5.51
-6.14
-6.61
-6.94
-7.11
-7.09
-6.88
-6.55
-6.26
-6.23
-6.54
-7.12
-7.75
-8.16
-8.17
-7.76
-7.04
-6.21
-5.41
-4.68
-4.00
-3.34
-2.72
-2.23
-1.95
-1.86
-1.89
-1.88
-1.67
-1.16
-0.33
0.71
1.76
2.56
2.94
2.86
2.48
2.07
1.88
2.04
2.46
2.93
3.13
2.88
2.12
0.98
-0.37
-1.74
-2.90
-3.67
-3.89
-3.50
-2.61
-1.47
-0.41
0.32
0.64
0.65
0.53
0.45
0.45
0.48
0.47
0.40
0.28
0.11
-0.16
-0.60
-1.24
-2.03
-2.83
-3.48
-3.91
-4.11
-4.16
-4.13
-4.03
-3.86
-3.62
-3.39
-3.30
-3.48
-3.97
-4.77
-5.71
-6.59
-7.19
-7.35
-7.03
-6.32
-5.42
-4.62
-4.12
-3.95
-3.99
-3.96
-3.58
-2.67
-1.25
0.54
2.44
4.23
5.79
7.07
8.03
8.67
8.94
8.83
8.42
7.83
7.23
6.74
6.37
6.08
5.79
5.48
5.11
4.68
4.12
3.29
2.07
0.49
-1.29
-2.98
-4.35
-5.25
-5.67
-5.64
-5.14
-4.08
-2.41
-0.19
2.34
4.82
6.90
8.43
9.46
10.21
10.90
11.64
12.40
13.08
13.64
14.15
14.76
15.54
16.43
17.21
17.49
16.96
15.47
13.16
10.40
7.68
5.37
3.67
2.52
1.75
1.24
0.95
0.91
1.12
1.45
1.67
1.50
0.78
-0.36
-1.65
-2.69
-3.19
-3.11
-2.60
-2.00
-1.62
-1.67
-2.19
-3.04
-3.96
-4.73
-5.20
-5.35
-5.29
-5.14
-4.98
-4.81
-4.60
-4.34
-4.05
-3.81
-3.68
-3.65
-3.58
-3.32
-2.77
-1.98
-1.13
-0.51
-0.32
-0.56
-1.13
-1.80
-2.49
-3.18
-3.95
-4.79
-5.60
-6.11
-6.03
-5.29
-3.99
-2.47
-1.18
-0.43
-0.33
-0.72
-1.31
-1.80
-1.96
-1.76
-1.28
-0.67
-0.04
0.54
1.10
1.68
2.27
2.81
3.24
3.53
3.69
3.79
3.84
3.85
3.79
3.62
3.35
3.01
2.60
2.10
1.50
0.77
-0.05
-0.98
-1.97
-3.04
-4.16
-5.26
-6.16
-6.61
-6.41
-5.51
-4.04
-2.31
-0.71
0.46
1.03
1.05
0.73
0.33
0.07
0.08
0.41
0.99
1.74
2.58
3.44
4.24
4.82
5.08
5.00
4.64
4.16
3.74
3.48
3.41
3.42
3.37
3.15
2.72
2.09
1.34
0.55
-0.18
-0.78
-1.21
-1.48
-1.61
-1.63
-1.52
-1.24
-0.69
0.10
1.02
1.85
2.40
2.60
2.53
2.39
2.35
2.43
2.50
2.40
2.00
1.38
0.70
0.16
-0.13
-0.16
0.04
0.41
0.94
1.62
2.43
3.24
3.86
4.07
3.76
2.98
1.92
0.84
-0.06
-0.73
-1.27
-1.84
-2.55
-3.40
-4.21
-4.75
-4.87
-4.60
-4.12
-3.63
-3.23
-2.83
-2.28
-1.43
-0.31
0.92
1.99
2.70
3.03
3.07
3.02
2.95
2.87
2.73
2.51
2.26
2.08
2.11
2.34
2.68
2.95
2.99
2.72
2.17
1.48
0.77
0.16
-0.31
-0.70
-1.08
-1.47
-1.90
-2.32
-2.70
-2.99
-3.16
-3.20
-3.07
-2.77
-2.34
-1.84
-1.36
-0.94
-0.63
-0.41
-0.30
-0.31
-0.47
-0.78
-1.16
-1.46
-1.50
-1.22
-0.67
-0.02
0.62
1.13
1.56
1.94
2.30
2.53
2.47
2.02
1.18
0.13
-0.84
-1.51
-1.74
-1.56
-1.14
-0.78
-0.77
-1.30
-2.40
-3.89
-5.40
-6.54
-7.03
-6.77
-5.89
-4.63
-3.22
-1.91
-0.81
0.02
0.58
0.92
1.18
1.51
1.99
2.57
3.08
3.26
2.98
2.27
1.38
0.63
0.28
0.42
0.94
1.59
2.13
2.41
2.39
2.10
1.59
0.86
-0.11
-1.25
-2.44
-3.47
-4.17
-4.52
-4.60
-4.69
-4.99
-5.54
-6.19
-6.64
-6.62
-6.06
-5.10
-4.03
-3.10
-2.43
-1.96
-1.60
-1.25
-0.91
-0.67
-0.58
-0.64
-0.72
-0.67
-0.38
0.14
0.75
1.27
1.51
1.44
1.09
0.59
-0.01
-0.69
-1.53
-2.55
-3.68
-4.66
-5.20
-5.10
-4.36
-3.20
-1.94
-0.86
-0.10
0.37
0.68
0.98
1.38
1.95
2.78
3.94
5.49
7.41
9.56
11.71
13.57
14.94
15.68
15.79
15.41
14.69
13.77
12.71
11.49
10.02
8.25
6.23
4.10
2.06
0.25
-1.28
-2.54
-3.58
-4.41
-4.93
-5.04
-4.67
-3.91
-3.02
-2.33
-2.18
-2.67
-3.70
-4.98
-6.14
-6.90
-7.13
-6.87
-6.26
-5.49
-4.71
-4.03
-3.47
-3.01
-2.62
-2.27
-1.97
-1.78
-1.70
-1.72
-1.72
-1.59
-1.27
-0.82
-0.42
-0.24
-0.41
-0.89
-1.49
-1.98
-2.16
-2.01
-1.67
-1.38
-1.29
-1.47
-1.80
-2.15
-2.47
-2.77
-3.20
-3.83
-4.56
-5.16
-5.32
-4.86
-3.89
-2.76
-1.83
-1.36
-1.34
-1.57
-1.82
-1.95
-2.04
-2.27
-2.75
-3.49
-4.31
-4.99
-5.34
-5.37
-5.18
-5.03
-5.17
-5.78
-6.90
-8.50
-10.42
-12.51
-14.66
-16.81
-18.98
-21.20
-23.51
-25.93
-28.50
-31.22
-34.17
-37.34
-40.69
-44.06
-47.31
-50.32
-53.13
-55.87
-58.79
-62.10
-66.00
-70.50
-75.57
-81.10
-87.00
-93.10
-99.21
-105.04
-110.13
-113.91
-115.69
-114.71
-110.26
-101.72
-88.73
-71.27
-49.80
-25.27
0.97
27.33
52.24
74.43
92.97
107.40
117.57
123.61
125.93
125.08
121.73
116.62
110.38
103.63
96.90
90.63
85.13
80.48
76.45
72.60
68.56
64.11
59.41
54.82
50.68
47.15
44.10
41.24
38.29
35.19
32.05
29.12
26.55
24.43
22.68
21.16
19.64
17.98
16.10
14.01
11.87
9.82
8.02
6.51
5.25
4.16
3.21
2.42
1.81
1.28
0.61
-0.51
-2.21
-4.33
-6.37
-7.69
-7.87
-6.88
-5.19
-3.49
-2.33
-1.88
-1.86
-1.84
-1.51
-0.85
-0.13
0.32
0.31
-0.10
-0.64
-1.01
-0.99
-0.63
-0.10
0.27
0.27
-0.14
-0.77
-1.32
-1.53
-1.32
-0.81
-0.34
-0.18
-0.48
-1.14
-1.91
-2.61
-3.21
-3.81
-4.52
-5.30
-5.90
-5.98
-5.25
-3.66
-1.49
0.78
2.67
3.83
4.19
3.94
3.40
2.87
2.50
2.30
2.13
1.84
1.38
0.84
0.39
0.23
0.43
0.96
1.57
2.04
2.16
1.86
1.25
0.46
-0.33
-1.06
-1.75
-2.50
-3.37
-4.31
-5.14
-5.65
-5.68
-5.31
-4.74
-4.31
-4.15
-4.16
-4.05
-3.45
-2.26
-0.68
0.88
1.99
2.53
2.72
2.94
3.44
4.20
4.89
5.03
4.38
3.04
1.45
0.16
-0.44
-0.29
0.36
1.08
1.52
1.59
1.43
1.31
1.43
1.76
1.99
1.74
0.80
-0.71
-2.31
-3.43
-3.72
-3.25
-2.49
-2.04
-2.24
-2.93
-3.57
-3.53
-2.50
-0.70
1.32
2.87
3.60
3.57
3.18
2.90
2.93
3.19
3.35
3.14
2.49
1.69
1.08
0.93
1.21
1.69
2.01
1.97
1.57
1.04
0.69
0.65
0.89
1.16
1.24
1.02
0.60
0.19
-0.00
0.06
0.31
0.54
0.57
0.28
-0.37
-1.29
-2.26
-3.01
-3.33
-3.13
-2.50
-1.65
-0.77
0.01
0.69
1.32
1.85
2.13
1.91
1.06
-0.37
-2.04
-3.46
-4.23
-4.13
-3.29
-2.00
-0.65
0.46
1.23
1.73
2.15
2.63
3.13
3.54
3.61
3.30
2.64
1.84
1.14
0.58
0.02
-0.78
-1.99
-3.53
-5.07
-6.20
-6.58
-6.17
-5.19
-4.03
-3.01
-2.32
-1.94
-1.67
-1.34
-0.84
-0.22
0.42
0.94
1.36
1.73
2.19
2.82
3.55
4.18
4.51
4.36
3.80
2.99
2.17
1.56
1.16
0.93
0.75
0.61
0.50
0.47
0.50
0.48
0.34
0.04
-0.39
-0.87
-1.37
-1.90
-2.51
-3.21
-3.91
-4.46
-4.75
-4.74
-4.50
-4.12
-3.67
-3.07
-2.25
-1.19
-0.02
1.00
1.66
1.88
1.80
1.72
1.90
2.43
3.17
3.83
4.15
4.05
3.59
2.94
2.25
1.59
0.89
0.16
-0.56
-1.04
-1.04
-0.48
0.55
1.70
2.53
2.72
2.18
1.10
-0.20
-1.45
-2.57
-3.61
-4.67
-5.77
-6.73
-7.29
-7.26
-6.61
-5.54
-4.38
-3.42
-2.78
-2.32
-1.81
-1.07
-0.11
0.90
1.68
2.06
2.03
1.76
1.50
1.37
1.29
1.04
0.43
-0.47
-1.16
-0.86
1.28
5.79
12.59
21.04
30.04
38.48
45.48
50.60
53.77
55.19
55.26
54.40
53.16
52.04
51.44
51.54
52.30
53.52
55.06
56.96
59.37
62.37
65.77
69.04
71.46
72.44
71.84
70.11
68.16
67.05
67.66
70.28
74.52
79.31
83.27
85.13
84.22
80.72
75.47
69.65
64.19
59.57
55.80
52.66
50.11
48.43
48.20
49.98
53.93
59.64
66.19
72.50
77.65
81.19
83.25
84.37
85.19
86.18
87.38
88.48
88.96
88.27
85.99
81.85
75.69
67.40
57.09
45.04
31.89
18.57
6.13
-4.40
-12.29
-17.18
-19.20
-18.93
-17.32
-15.60
-14.97
-16.44
-20.57
-27.35
-36.29
-46.48
-56.86
-66.30
-73.67
-78.27
-80.06
-80.07
-80.34
-83.43
-91.48
-105.27
-123.74
-144.26
-163.56
-178.85
-188.61
-192.72
-192.05
-187.80
-181.11
-172.83
-163.74
-154.54
-145.91
-138.31
-131.85
-126.23
-120.81
-114.80
-107.56
-98.87
-89.03
-78.84
-69.37
-61.59
-56.01
-52.52
-50.49
-49.05
-47.56
-45.82
-44.15
-43.06
-42.97
-43.91
-45.49
-47.00
-47.78
-47.44
-46.01
-43.81
-41.35
-39.01
-36.93
-35.00
-33.00
-30.72
-28.06
-24.98
-21.45
-17.42
-12.83
-7.76
-2.31
3.31
9.00
14.80
21.01
28.06
36.41
46.38
57.86
70.21
82.33
92.89
100.84
105.77
108.00
108.47
108.17
107.66
106.86
105.16
101.90
96.83
90.36
83.31
76.50
70.24
64.29
58.02
50.86
42.70
33.99
25.52
18.06
12.03
7.33
3.63
0.60
-1.90
-3.76
-4.85
-5.21
-5.13
-5.04
-5.37
-6.35
-7.94
-9.97
-12.09
-14.01
-15.46
-16.26
-16.32
-15.76
-14.78
-13.71
-12.83
-12.26
-11.98
-11.93
-12.04
-12.32
-12.85
-13.70
-14.83
-16.07
-17.20
-17.95
-18.17
-17.85
-17.09
-16.09
-15.16
-14.57
-14.50
-14.95
-15.70
-16.41
-16.72
-16.45
-15.68
-14.65
-13.68
-13.01
-12.68
-12.66
-12.77
-12.89
-12.93
-12.86
-12.69
-12.47
-12.29
-12.20
-12.20
-12.19
-12.05
-11.71
-11.20
-10.70
-10.47
-10.68
-11.28
-12.04
-12.65
-12.92
-12.90
-12.88
-13.17
-13.93
-14.99
-15.89
-16.10
-15.31
-13.62
-11.48
-9.54
-8.34
-8.09
-8.63
-9.53
-10.36
-10.75
-10.55
-9.78
-8.52
-6.95
-5.23
-3.60
-2.25
-1.33
-0.84
-0.65
-0.59
-0.54
-0.51
-0.59
-0.89
-1.50
-2.40
-3.55
-4.83
-6.20
-7.53
-8.65
-9.41
-9.70
-9.57
-9.32
-9.41
-10.26
-12.12
-14.89
-18.19
-21.49
-24.31
-26.37
-27.58
-28.02
-27.79
-26.96
-25.54
-23.49
-20.86
-17.78
-14.41
-10.94
-7.62
-4.71
-2.43
-0.95
-0.36
-0.57
-1.33
-2.34
-3.24
-3.78
-3.78
-3.15
-1.91
-0.18
1.80
3.79
5.60
7.14
8.53
9.90
11.31
12.69
13.84
14.51
14.59
14.04
12.91
11.30
9.36
7.23
5.18
3.53
2.56
2.38
2.86
3.63
4.22
4.25
3.54
2.16
0.44
-1.21
-2.42
-3.00
-2.95
-2.47
-1.85
-1.31
-1.02
-1.03
-1.31
-1.81
-2.47
-3.29
-4.26
-5.42
-6.73
-8.15
-9.50
-10.56
-11.09
-10.96
-10.16
-8.92
-7.59
-6.50
-5.86
-5.65
-5.73
-5.83
-5.73
-5.33
-4.64
-3.77
-2.78
-1.66
-0.40
0.93
2.16
2.98
3.16
2.66
1.65
0.54
-0.27
-0.53
-0.26
0.33
1.00
1.59
2.14
2.74
3.49
4.36
5.21
5.90
6.31
6.41
6.19
5.68
4.88
3.86
2.76
1.79
1.18
1.00
1.15
1.38
1.46
1.23
0.71
0.03
-0.65
-1.20
-1.58
-1.84
-2.01
-2.17
-2.34
-2.52
-2.67
-2.76
-2.74
-2.64
-2.57
-2.71
-3.25
-4.28
-5.71
-7.25
-8.51
-9.25
-9.40
-9.11
-8.59
-7.96
-7.23
-6.35
-5.38
-4.57
-4.26
-4.69
-5.88
-7.48
-9.05
-10.23
-10.96
-11.44
-11.98
-12.77
-13.75
-14.69
-15.28
-15.34
-14.87
-14.01
-12.98
-11.97
-11.12
-10.45
-9.93
-9.50
-9.09
-8.74
-8.46
-8.35
-8.39
-8.59
-8.86
-9.12
-9.32
-9.38
-9.24
-8.76
-7.86
-6.53
-4.89
-3.17
-1.60
-0.31
0.66
1.30
1.60
1.48
0.88
-0.19
-1.53
-2.81
-3.74
-4.16
-4.12
-3.82
-3.49
-3.22
-3.05
-2.90
-2.71
-2.42
-2.02
-1.43
-0.63
0.38
1.54
2.71
3.69
4.30
4.46
4.28
4.00
3.94
4.34
5.22
6.32
7.28
7.78
7.72
7.25
6.67
6.17
5.67
4.91
3.64
1.91
0.12
-1.17
-1.49
-0.79
0.58
2.02
2.99
3.25
2.91
2.26
1.61
1.18
0.98
0.96
0.98
0.95
0.81
0.59
0.33
0.07
-0.08
-0.13
-0.01
0.30
0.76
1.31
1.82
2.13
2.08
1.55
0.48
-1.01
-2.75
-4.48
-5.98
-7.05
-7.61
-7.69
-7.46
-7.20
-7.14
-7.39
-7.82
-8.14
-8.06
-7.44
-6.40
-5.23
-4.19
-3.31
-2.45
-1.41
-0.17
0.98
1.61
1.37
0.31
-1.14
-2.35
-2.90
-2.76
-2.30
-2.01
-2.20
-2.85
-3.68
-4.47
-5.20
-6.08
-7.33
-8.88
-10.39
-11.33
-11.33
-10.43
-9.09
-7.90
-7.35
-7.49
-8.03
-8.53
-8.58
-8.04
-6.96
-5.54
-3.97
-2.37
-0.72
1.05
3.03
5.18
7.35
9.22
10.41
10.57
9.59
7.66
5.25
3.02
1.46
0.84
1.04
1.71
2.44
2.93
3.10
3.00
2.70
2.24
1.59
0.73
-0.30
-1.34
-2.21
-2.83
-3.25
-3.66
-4.28
-5.13
-6.07
-6.79
-6.97
-6.44
-5.25
-3.58
-1.70
0.18
1.88
3.32
4.42
5.20
5.76
6.25
6.86
7.70
8.81
10.06
11.25
12.16
12.62
12.57
12.03
11.13
10.08
9.11
8.44
8.22
8.44
8.87
9.19
9.04
8.21
6.69
4.71
2.57
0.58
-1.14
-2.54
-3.67
-4.52
-5.03
-5.17
-4.99
-4.59
-4.12
-3.66
-3.23
-2.84
-2.51
-2.31
-2.31
-2.47
-2.62
-2.56
-2.16
-1.44
-0.56
0.25
0.86
1.19
1.21
0.84
0.03
-1.23
-2.79
-4.34
-5.58
-6.34
-6.74
-7.09
-7.66
-8.57
-9.72
-10.88
-11.76
-12.21
-12.10
-11.40
-10.10
-8.28
-6.22
-4.26
-2.73
-1.81
-1.43
-1.39
-1.45
-1.42
-1.22
-0.73
0.09
1.29
2.80
4.41
5.79
6.66
6.87
6.48
5.75
4.97
4.38
4.03
3.86
3.80
3.80
3.87
4.09
4.47
4.95
5.36
5.58
5.59
5.56
5.72
6.21
6.99
7.85
8.61
9.20
9.73
10.26
10.80
11.13
11.04
10.41
9.40
8.42
7.90
8.05
8.80
9.82
10.75
11.30
11.37
10.93
10.03
8.70
7.02
5.10
3.08
1.07
-0.87
-2.68
-4.27
-5.41
-5.89
-5.57
-4.53
-3.06
-1.54
-0.24
0.79
1.72
2.77
3.96
5.10
5.85
5.95
5.41
4.50
3.60
3.06
2.98
3.33
3.91
4.58
5.22
5.77
6.18
6.33
6.12
5.53
4.62
3.57
2.61
1.87
1.35
0.88
0.19
-0.93
-2.55
-4.47
-6.26
-7.45
-7.73
-7.04
-5.66
-4.01
-2.52
-1.47
-0.88
-0.62
-0.48
-0.34
-0.20
-0.09
-0.02
0.11
0.52
1.35
2.55
3.86
4.91
5.41
5.28
4.67
3.84
3.01
2.22
1.40
0.47
-0.57
-1.61
-2.58
-3.42
-4.14
-4.74
-5.03
-4.72
-3.57
-1.52
1.23
4.23
6.94
9.08
10.57
11.65
12.62
13.68
14.79
15.71
16.22
16.25
15.98
15.75
15.91
16.62
17.80
19.15
20.30
21.00
21.20
20.96
20.40
19.60
18.50
17.00
15.01
12.50
9.56
6.33
3.08
0.04
-2.57
-4.55
-5.81
-6.33
-6.17
-5.43
-4.31
-3.08
-2.06
-1.59
-1.93
-3.12
-4.99
-7.19
-9.36
-11.21
-12.64
-13.69
-14.49
-15.14
-15.71
-16.20
-16.57
-16.84
-17.06
-17.19
-17.27
-17.32
-17.43
-17.66
-18.07
-18.55
-18.85
-18.62
-17.55
-15.56
-12.82
-9.76
-6.84
-4.44
-2.70
-1.57
-0.88
-0.52
-0.48
-0.81
-1.55
-2.61
-3.78
-4.74
-5.23
-5.09
-4.34
-3.18
-1.92
-0.86
-0.20
-0.02
-0.20
-0.59
-1.02
-1.46
-2.02
-2.90
-4.27
-6.07
-8.06
-9.82
-10.92
-11.08
-10.24
-8.67
-6.73
-4.81
-3.17
-1.92
-0.99
-0.27
0.26
0.55
0.49
0.07
-0.58
-1.14
-1.27
-0.76
0.32
1.69
2.96
3.85
4.32
4.54
4.72
4.92
5.03
4.76
3.82
2.05
-0.43
-3.28
-6.09
-8.47
-10.13
-10.96
-10.99
-10.37
-9.31
-8.03
-6.67
-5.31
-3.97
-2.67
-1.48
-0.54
0.04
0.23
0.08
-0.22
-0.50
-0.60
-0.44
0.02
0.77
1.73
2.79
3.72
4.30
4.38
3.97
3.19
2.22
1.12
-0.13
-1.67
-3.55
-5.64
-7.64
-9.17
-9.87
-9.55
-8.24
-6.11
-3.37
-0.24
3.10
6.47
9.73
12.74
15.39
17.63
19.38
20.55
21.07
20.93
20.24
19.22
18.13
17.12
16.15
15.08
13.67
11.90
9.87
7.80
6.00
4.55
3.40
2.43
1.51
0.61
-0.24
-1.03
-1.86
-2.86
-4.19
-5.77
-7.37
-8.57
-9.00
-8.44
-7.01
-5.04
-2.94
-1.07
0.39
1.43
2.14
2.64
3.09
3.62
4.37
5.43
6.78
8.32
9.87
11.21
12.15
12.55
12.35
11.55
10.26
8.60
6.82
5.13
3.67
2.44
1.32
0.17
-1.13
-2.61
-4.25
-5.96
-7.67
-9.23
-10.44
-11.04
-10.81
-9.71
-7.82
-5.48
-3.01
-0.65
1.49
3.46
5.30
6.99
8.46
9.60
10.34
10.70
10.76
10.54
10.12
9.49
8.67
7.73
6.79
5.93
5.17
4.46
3.68
2.78
1.82
0.90
0.10
-0.61
-1.37
-2.37
-3.82
-5.71
-7.91
-10.06
-11.75
-12.61
-12.39
-11.09
-8.89
-6.13
-3.18
-0.44
1.72
3.04
3.38
2.73
1.32
-0.48
-2.20
-3.40
-3.85
-3.49
-2.48
-1.06
0.53
2.08
3.40
4.36
4.93
5.18
5.22
5.05
4.54
3.51
1.91
-0.02
-1.80
-2.92
-3.17
-2.79
-2.36
-2.36
-2.87
-3.42
-3.29
-1.97
0.49
3.47
6.17
8.02
8.93
9.19
9.21
9.25
9.25
9.03
8.47
7.61
6.68
5.97
5.65
5.76
6.22
6.85
7.43
7.72
7.56
6.92
5.95
4.98
4.30
4.08
4.18
4.25
3.92
2.93
1.24
-0.92
-3.30
-5.60
-7.66
-9.27
-10.25
-10.39
-9.57
-7.85
-5.52
-3.05
-0.82
0.90
2.12
3.02
3.82
4.67
5.48
6.12
6.40
6.32
6.05
5.90
6.13
6.76
7.52
8.01
7.90
7.08
5.76
4.32
3.11
2.27
1.72
1.14
0.21
-1.23
-3.15
-5.34
-7.53
-9.42
-10.79
-11.46
-11.29
-10.21
-8.29
-5.87
-3.39
-1.39
-0.23
0.06
-0.27
-0.71
-0.89
-0.65
-0.11
0.54
1.20
1.91
2.78
3.79
4.81
5.55
5.76
5.34
4.42
3.23
2.02
0.97
0.15
-0.43
-0.85
-1.24
-1.81
-2.82
-4.47
-6.83
-9.64
-12.50
-14.85
-16.18
-16.07
-14.40
-11.36
-7.44
-3.37
0.16
2.70
4.17
4.84
5.11
5.31
5.59
5.92
6.25
6.65
7.24
8.13
9.17
10.03
10.32
9.75
8.38
6.49
4.50
2.70
1.20
-0.04
-1.15
-2.24
-3.40
-4.74
-6.39
-8.42
-10.68
-12.79
-14.20
-14.40
-13.20
-10.78
-7.72
-4.69
-2.18
-0.30
1.19
2.65
4.38
6.36
8.34
10.03
11.22
11.89
12.16
12.15
11.97
11.59
11.03
10.32
9.58
8.87
8.15
7.28
6.11
4.52
2.53
0.31
-1.98
-4.16
-6.15
-7.94
-9.66
-11.44
-13.44
-15.70
-17.97
-19.86
-20.81
-20.39
-18.49
-15.47
-11.99
-8.72
-6.10
-4.20
-2.83
-1.68
-0.57
0.52
1.50
2.23
2.69
2.91
3.02
3.14
3.31
3.56
3.87
4.15
4.29
4.19
3.71
2.79
1.41
-0.27
-2.08
-3.73
-4.89
-5.33
-4.99
-4.17
-3.41
-3.34
-4.39
-6.56
-9.43
-12.29
-14.53
-15.82
-16.17
-15.78
-14.84
-13.40
-11.49
-9.16
-6.53
-3.80
-1.10
1.54
4.22
7.03
9.96
12.91
15.74
18.41
20.87
23.12
25.12
26.75
27.88
28.51
28.79
28.99
29.35
29.94
30.63
31.15
31.20
30.67
29.64
28.38
27.20
26.28
25.68
25.22
24.60
23.41
21.27
17.94
13.46
8.25
3.07
-1.12
-3.48
-3.59
-1.67
1.43
4.42
5.99
5.07
1.19
-5.40
-13.78
-22.65
-30.81
-37.54
-42.79
-47.15
-51.33
-55.78
-60.38
-64.58
-67.81
-69.90
-71.44
-73.57
-77.60
-84.50
-94.50
-106.84
-119.76
-130.59
-136.12
-133.17
-119.51
-94.80
-61.20
-23.16
13.70
44.15
64.95
75.67
78.30
76.07
71.99
67.85
64.02
60.08
55.67
50.95
46.64
43.44
41.52
40.40
39.17
37.22
34.53
31.78
29.92
29.62
30.83
32.77
34.29
34.41
32.75
29.64
25.92
22.49
19.95
18.38
17.41
16.46
15.11
13.20
10.84
8.28
5.78
3.45
1.38
-0.41
-1.83
-2.82
-3.30
-3.28
-2.75
-1.74
-0.28
1.66
4.07
6.95
10.18
13.50
16.48
18.67
19.78
19.78
19.06
18.19
17.69
17.76
18.17
18.45
18.18
17.20
15.68
13.90
12.14
10.53
9.04
7.66
6.36
5.19
4.10
3.04
1.93
0.67
-0.81
-2.55
-4.60
-6.91
-9.36
-11.67
-13.48
-14.44
-14.42
-13.55
-12.12
-10.51
-8.94
-7.51
-6.20
-5.04
-4.19
-3.86
-4.20
-5.07
-6.18
-7.12
-7.59
-7.54
-7.22
-6.90
-6.78
-6.85
-6.90
-6.80
-6.53
-6.33
-6.45
-7.08
-8.21
-9.61
-11.06
-12.38
-13.57
-14.67
-15.74
-16.83
-18.01
-19.43
-21.21
-23.45
-26.13
-29.00
-31.68
-33.63
-34.39
-33.71
-31.65
-28.68
-25.50
-22.79
-20.99
-20.11
-19.74
-19.36
-18.49
-17.03
-15.17
-13.27
-11.57
-10.03
-8.46
-6.63
-4.47
-2.12
0.21
2.35
4.25
6.01
7.74
9.52
11.27
12.86
14.15
15.04
15.49
15.48
14.97
13.84
12.06
9.70
7.07
4.67
3.11
2.92
4.32
7.11
10.69
14.30
17.31
19.48
20.92
21.98
23.08
24.44
26.03
27.65
29.12
30.30
31.19
31.91
32.58
33.24
33.79
34.04
33.78
32.88
31.32
29.26
26.93
24.55
22.34
20.37
18.66
17.21
16.01
15.08
14.38
13.74
12.92
11.64
9.81
7.55
5.23
3.33
2.21
1.98
2.48
3.38
4.36
5.17
5.69
5.87
5.72
5.29
4.69
4.05
3.54
3.31
3.44
4.01
5.01
6.27
7.57
8.52
8.82
8.35
7.28
5.98
4.85
4.08
3.53
2.89
1.85
0.30
-1.62
-3.58
-5.32
-6.73
-7.90
-8.94
-9.88
-10.61
-10.90
-10.61
-9.75
-8.50
-7.06
-5.64
-4.34
-3.19
-2.27
-1.66
-1.40
-1.53
-1.88
-2.29
-2.59
-2.68
-2.56
-2.34
-2.17
-2.18
-2.48
-3.06
-3.83
-4.62
-5.22
-5.52
-5.53
-5.35
-5.19
-5.23
-5.64
-6.49
-7.75
-9.26
-10.74
-11.88
-12.37
-12.05
-10.98
-9.34
-7.44
-5.59
-3.96
-2.68
-1.78
-1.28
-1.15
-1.20
-1.09
-0.44
1.01
3.14
5.51
7.48
8.54
8.55
7.81
6.96
6.52
6.78
7.58
8.48
9.02
8.82
7.71
5.71
2.96
-0.30
-3.74
-6.92
-9.42
-10.97
-11.52
-11.24
-10.36
-9.11
-7.60
-5.89
-4.09
-2.43
-1.21
-0.64
-0.71
-1.24
-1.88
-2.33
-2.45
-2.29
-1.96
-1.61
-1.27
-0.99
-0.81
-0.82
-1.11
-1.66
-2.38
-3.09
-3.69
-4.17
-4.67
-5.29
-6.09
-6.96
-7.77
-8.35
-8.66
-8.78
-8.81
-8.82
-8.72
-8.34
-7.49
-6.13
-4.35
-2.38
-0.48
1.14
2.40
3.31
3.93
4.35
4.65
4.87
5.04
5.15
5.22
5.31
5.49
5.82
6.35
7.02
7.68
8.14
8.26
8.03
7.51
6.75
5.73
4.35
2.54
0.36
-1.97
-4.19
-6.05
-7.42
-8.31
-8.78
-8.81
-8.40
-7.50
-6.18
-4.61
-3.03
-1.62
-0.45
0.51
1.30
1.89
2.24
2.32
2.24
2.18
2.38
2.98
3.91
4.91
5.68
5.93
5.60
4.79
3.71
2.49
1.17
-0.28
-1.85
-3.48
-4.90
-6.01
-6.76
-7.33
-7.92
-8.64
-9.38
-9.78
-9.50
-8.33
-6.37
-4.02
-1.82
-0.18
0.74
1.07
1.13
1.27
1.66
2.22
2.70
2.84
2.56
2.04
1.58
1.50
1.83
2.48
3.22
3.86
4.40
4.86
5.29
5.54
5.41
4.71
3.41
1.68
-0.19
-1.94
-3.49
-4.94
-6.42
-7.89
-9.14
-9.77
-9.44
-8.03
-5.77
-3.21
-0.84
0.96
2.19
3.10
4.05
5.33
7.16
9.69
13.09
17.53
23.00
29.14
35.26
40.48
43.94
45.19
44.31
41.84
38.60
35.33
32.51
30.40
29.05
28.39
28.21
28.13
27.56
25.92
22.82
18.32
12.98
7.74
3.61
1.41
1.53
3.92
8.27
14.03
20.64
27.65
34.67
41.47
47.98
54.24
60.40
66.68
73.24
80.16
87.34
94.49
101.22
107.08
111.71
114.78
116.03
115.26
112.49
107.99
102.45
96.78
91.83
88.10
85.44
83.22
80.65
77.14
72.55
67.17
61.48
56.07
51.43
47.96
45.89
45.21
45.59
46.32
46.60
45.69
43.26
39.39
34.40
28.70
22.49
15.88
8.87
1.61
-5.52
-12.04
-17.49
-21.77
-25.33
-29.11
-34.37
-42.09
-52.48
-64.80
-77.45
-88.61
-97.02
-102.61
-106.73
-111.97
-121.68
-139.26
-167.41
-207.14
-256.53
-310.15
-359.35
-393.97
-405.23
-388.57
-345.57
-283.75
-214.48
-149.50
-97.58
-62.61
-43.34
-34.98
-31.51
-27.77
-20.83
-9.95
3.88
18.98
33.69
46.67
56.84
63.35
65.70
64.08
59.54
53.81
48.73
45.65
44.96
45.98
47.38
47.64
45.70
41.32
35.14
28.37
22.34
17.95
15.36
14.05
13.17
12.03
10.32
8.25
6.31
5.00
4.51
4.73
5.31
5.83
5.97
5.60
4.80
3.79
2.86
2.09
1.38
0.43
-1.07
-3.27
-6.03
-9.04
-11.95
-14.48
-16.56
-18.15
-19.24
-19.79
-19.80
-19.44
-19.04
-18.99
-19.46
-20.24
-20.80
-20.44
-18.75
-15.79
-12.13
-8.60
-5.87
-4.24
-3.57
-3.48
-3.60
-3.83
-4.14
-4.56
-4.92
-4.93
-4.34
-3.08
-1.42
0.15
1.12
1.17
0.24
-1.54
-3.86
-6.36
-8.70
-10.52
-11.63
-12.01
-11.92
-11.76
-11.83
-12.23
-12.91
-13.66
-14.41
-15.16
-15.90
-16.46
-16.51
-15.70
-13.86
-11.25
-8.38
-5.80
-3.78
-2.21
-0.73
1.00
2.99
5.02
6.70
7.76
8.15
7.98
7.42
6.66
5.86
5.19
4.71
4.39
4.00
3.25
1.93
0.12
-1.81
-3.38
-4.27
-4.53
-4.51
-4.74
-5.61
-7.22
-9.46
-12.12
-14.98
-17.86
-20.55
-22.73
-24.02
-24.09
-22.89
-20.59
-17.55
-14.13
-10.60
-7.15
-3.95
-1.32
0.43
1.12
0.88
0.25
-0.10
0.45
2.15
4.78
7.81
10.59
12.63
13.77
14.10
13.90
13.48
13.09
12.80
12.50
11.98
10.95
9.32
7.07
4.36
1.45
-1.48
-4.24
-6.72
-8.72
-10.01
-10.28
-9.36
-7.31
-4.45
-1.39
1.26
3.17
4.34
5.19
6.24
7.81
9.86
11.91
13.35
13.78
13.16
11.90
10.58
9.71
9.43
9.54
9.74
9.63
9.13
8.30
7.31
6.38
5.46
4.52
3.43
2.19
0.85
-0.48
-1.85
-3.53
-5.92
-9.30
-13.79
-18.98
-24.25
-28.86
-32.31
-34.59
-36.08
-37.53
-39.57
-42.41
-45.62
-48.27
-49.33
-48.06
-44.49
-39.47
-34.38
-30.83
-29.95
-32.01
-36.16
-40.52
-42.95
-41.73
-36.45
-28.14
-18.75
-10.14
-3.10
2.89
9.30
17.81
29.44
44.53
62.75
83.38
105.45
127.38
147.15
162.57
172.00
174.98
172.34
165.64
156.46
145.75
133.91
121.11
107.80
94.68
82.61
72.15
63.39
56.08
49.70
43.78
37.91
31.73
24.90
17.14
8.21
-1.94
-13.20
-25.34
-38.04
-51.03
-64.04
-76.92
-89.62
-102.18
-114.56
-126.58
-137.76
-147.34
-154.42
-158.25
-158.44
-155.13
-148.92
-140.66
-131.24
-121.31
-111.15
-100.79
-90.25
-79.67
-69.59
-60.64
-53.39
-47.94
-43.75
-39.80
-35.01
-28.80
-21.24
-13.11
-5.50
0.69
5.11
8.04
10.16
12.04
13.96
15.62
16.45
15.98
14.18
11.50
8.74
6.62
5.55
5.56
6.53
8.35
11.23
15.42
21.03
27.90
35.58
43.63
51.73
59.77
67.63
75.05
81.54
86.54
89.68
90.91
90.53
89.06
87.00
84.80
82.83
81.29
80.28
79.64
79.08
78.18
76.65
74.39
71.55
68.39
65.09
61.62
57.81
53.39
48.33
42.81
37.21
31.96
27.22
22.93
18.88
14.95
11.35
8.45
6.54
5.42
4.38
2.33
-1.68
-7.88
-15.75
-24.10
-31.63
-37.45
-41.31
-43.56
-44.77
-45.35
-45.37
-44.71
-43.22
-41.05
-38.57
-36.30
-34.66
-33.81
-33.61
-33.83
-34.30
-34.96
-35.93
-37.25
-38.82
-40.44
-41.85
-42.92
-43.80
-44.86
-46.52
-48.93
-51.85
-54.46
-55.66
-54.43
-50.16
-42.99
-33.71
-23.60
-13.97
-5.80
0.46
4.85
7.74
9.58
10.73
11.37
11.63
11.59
11.50
11.69
12.42
13.82
15.63
17.33
18.28
18.07
16.59
14.12
11.16
8.10
5.11
2.13
-1.05
-4.47
-8.00
-11.33
-14.17
-16.49
-18.58
-20.89
-23.67
-26.72
-29.25
-30.18
-28.52
-23.81
-16.36
-7.19
2.36
11.04
18.16
23.60
27.74
31.26
34.63
38.06
41.54
44.98
48.43
52.19
56.56
61.68
67.22
72.44
76.34
78.16
77.63
75.04
71.06
66.37
61.49
56.59
51.62
46.44
40.99
35.29
29.49
23.70
17.98
12.28
6.54
0.73
-4.90
-9.87
-13.51
-15.18
-14.66
-12.23
-8.68
-5.01
-2.04
-0.12
0.80
1.04
0.91
0.58
0.06
-0.56
-1.17
-1.53
-1.37
-0.63
0.52
1.76
2.78
3.39
3.56
3.38
2.94
2.34
1.55
0.52
-0.84
-2.63
-4.84
-7.37
-10.06
-12.70
-15.21
-17.64
-20.10
-22.57
-24.74
-25.97
-25.47
-22.68
-17.63
-11.01
-4.07
2.00
6.43
9.12
10.47
11.02
11.06
10.60
9.48
7.65
5.42
3.38
2.19
2.27
3.60
5.66
7.72
9.08
9.37
8.61
7.17
5.53
4.04
2.77
1.56
0.13
-1.66
-3.80
-6.13
-8.48
-10.76
-12.90
-14.80
-16.14
-16.49
-15.39
-12.61
-8.40
-3.27
1.98
6.70
10.47
13.16
14.85
15.68
15.78
15.31
14.43
13.31
12.20
11.30
10.74
10.56
10.68
10.89
10.87
10.32
9.04
7.07
4.68
2.31
0.32
-1.20
-2.42
-3.74
-5.55
-8.06
-11.13
-14.28
-16.91
-18.36
-18.27
-16.56
-13.55
-9.77
-5.82
-2.13
1.00
3.43
5.03
5.68
5.28
3.96
2.16
0.48
-0.45
-0.39
0.47
1.58
2.32
2.36
1.77
0.90
0.05
-0.78
-1.96
-4.05
-7.39
-11.98
-17.42
-23.02
-28.11
-32.09
-34.50
-34.86
-32.80
-28.03
-20.60
-11.03
-0.23
10.58
20.20
27.79
32.93
35.88
37.26
37.82
38.24
38.79
39.42
39.87
39.92
39.49
38.65
37.48
36.01
34.10
31.63
28.53
24.93
21.02
16.94
12.69
8.11
2.96
-2.89
-9.26
-15.64
-21.24
-25.15
-26.62
-25.29
-21.31
-15.51
-9.03
-3.18
1.02
3.16
3.44
2.55
1.22
0.04
-0.77
-1.24
-1.46
-1.41
-0.98
-0.12
1.03
2.14
2.73
2.51
1.45
-0.20
-2.01
-3.71
-5.21
-6.75
-8.69
-11.35
-14.69
-18.31
-21.47
-23.36
-23.34
-21.24
-17.39
-12.52
-7.49
-2.98
0.57
3.05
4.41
4.66
3.84
2.14
-0.04
-2.07
-3.32
-3.48
-2.71
-1.53
-0.67
-0.61
-1.46
-2.91
-4.49
-5.87
-7.07
-8.35
-10.04
-12.29
-15.01
-17.96
-20.87
-23.54
-25.73
-27.17
-27.42
-26.04
-22.81
-17.88
-11.84
-5.61
-0.16
3.84
6.12
6.81
6.33
5.13
3.64
2.19
0.96
0.09
-0.42
-0.61
-0.57
-0.41
-0.19
-0.00
0.07
-0.11
-0.72
-1.87
-3.54
-5.62
-7.87
-10.03
-11.88
-13.28
-14.05
-13.96
-12.70
-10.06
-6.06
-1.07
4.12
8.62
11.67
12.99
12.80
11.74
10.52
9.57
9.00
8.63
8.28
7.94
7.76
7.86
8.20
8.45
8.16
7.03
5.05
2.60
0.17
-1.84
-3.41
-4.87
-6.62
-8.94
-11.65
-14.16
-15.63
-15.34
-13.05
-9.06
-4.19
0.59
4.49
7.13
8.48
8.77
8.24
7.10
5.50
3.65
1.80
0.24
-0.77
-1.13
-0.86
-0.21
0.52
0.95
0.75
-0.23
-1.94
-4.17
-6.72
-9.38
-12.14
-15.05
-18.05
-20.83
-22.78
-23.17
-21.46
-17.59
-12.08
-5.92
-0.16
4.46
7.69
9.76
11.05
11.93
12.46
12.62
12.33
11.68
10.89
10.25
9.95
9.90
9.89
9.61
8.88
7.70
6.27
4.82
3.48
2.16
0.53
-1.82
-5.15
-9.31
-13.74
-17.50
-19.70
-19.74
-17.61
-13.76
-8.97
-3.93
0.85
5.11
8.68
11.44
13.20
13.90
13.53
12.39
10.93
9.71
9.25
9.75
11.06
12.67
13.89
14.14
13.15
11.10
8.55
6.07
4.08
2.50
1.02
-0.82
-3.29
-6.38
-9.88
-13.44
-16.75
-19.47
-21.23
-21.61
-20.19
-16.82
-11.72
-5.58
0.67
6.19
10.43
13.35
15.22
16.38
17.13
17.49
17.41
16.86
16.03
15.27
14.95
15.23
15.94
16.65
16.84
16.14
14.48
12.10
9.44
6.97
4.95
3.38
2.03
0.58
-1.26
-3.64
-6.55
-9.88
-13.35
-16.65
-19.35
-20.94
-21.03
-19.37
-16.03
-11.44
-6.17
-0.95
3.61
7.10
9.36
10.46
10.71
10.51
10.33
10.46
11.07
12.03
13.11
14.03
14.62
14.91
14.95
14.80
14.40
13.58
12.16
10.10
7.54
4.80
2.17
-0.20
-2.36
-4.51
-6.88
-9.59
-12.62
-15.74
-18.57
-20.71
-21.66
-21.07
-18.77
-14.84
-9.65
-3.82
1.96
7.03
10.88
13.25
14.19
13.97
13.02
11.92
11.14
11.03
11.67
12.89
14.41
15.88
16.98
17.53
17.40
16.58
15.10
13.09
10.65
7.98
5.34
2.96
1.03
-0.46
-1.71
-3.08
-4.96
-7.57
-10.79
-14.23
-17.20
-18.98
-19.02
-17.21
-13.79
-9.39
-4.73
-0.37
3.30
6.16
8.15
9.29
9.60
9.22
8.41
7.55
7.00
6.99
7.57
8.58
9.82
11.07
12.15
12.85
12.98
12.34
10.96
9.04
6.91
4.94
3.36
2.18
1.27
0.33
-0.92
-2.78
-5.40
-8.88
-12.99
-17.25
-20.93
-23.26
-23.67
-22.01
-18.54
-13.85
-8.67
-3.66
0.69
4.07
6.30
7.40
7.43
6.70
5.63
4.66
4.20
4.41
5.22
6.33
7.43
8.23
8.61
8.54
8.12
7.38
6.37
5.04
3.42
1.54
-0.52
-2.69
-4.96
-7.31
-9.73
-12.22
-14.72
-17.16
-19.38
-21.17
-22.24
-22.26
-21.02
-18.49
-14.95
-10.83
-6.62
-2.71
0.64
3.28
5.07
5.84
5.52
4.28
2.64
1.29
0.87
1.71
3.64
6.08
8.38
10.06
11.01
11.49
11.88
12.46
13.24
14.04
14.57
14.58
13.97
12.80
11.16
9.17
6.87
4.30
1.46
-1.61
-4.72
-7.59
-9.75
-10.76
-10.32
-8.46
-5.58
-2.28
0.83
3.37
5.20
6.42
7.15
7.35
6.99
6.06
4.69
3.30
2.33
2.09
2.58
3.51
4.42
4.94
4.92
4.38
3.52
2.48
1.30
-0.09
-1.75
-3.65
-5.67
-7.64
-9.51
-11.44
-13.74
-16.73
-20.52
-24.82
-28.93
-31.96
-33.08
-31.90
-28.47
-23.47
-17.78
-12.31
-7.77
-4.48
-2.53
-1.75
-1.92
-2.66
-3.57
-4.18
-4.07
-3.01
-1.07
1.45
4.11
6.43
8.10
8.97
9.09
8.60
7.71
6.64
5.57
4.63
3.87
3.35
3.09
3.03
3.07
3.01
2.59
1.60
0.02
-1.90
-3.73
-4.91
-5.04
-3.93
-1.72
1.15
4.15
6.76
8.60
9.54
9.60
8.97
7.80
6.19
4.09
1.49
-1.51
-4.67
-7.60
-9.97
-11.66
-12.77
-13.57
-14.30
-14.99
-15.55
-15.79
-15.67
-15.39
-15.30
-15.77
-16.87
-18.34
-19.64
-20.26
-19.94
-18.83
-17.35
-15.89
-14.57
-13.12
-11.06
-8.01
-3.89
1.04
6.40
11.82
17.16
22.41
27.53
32.32
36.39
39.31
40.85
41.23
41.11
41.31
42.52
44.90
47.97
50.87
52.62
52.62
50.81
47.64
43.82
40.07
36.85
34.32
32.33
30.61
28.85
26.88
24.76
22.72
21.10
20.18
20.10
20.81
22.16
24.03
26.28
28.84
31.60
34.52
37.74
41.62
46.48
52.21
57.98
62.15
62.76
58.26
48.17
33.33
15.54
-3.12
-20.95
-37.01
-50.95
-62.66
-71.86
-78.08
-80.75
-79.68
-75.30
-68.69
-61.31
-54.65
-49.72
-46.90
-45.96
-46.32
-47.36
-48.65
-50.10
-51.68
-53.35
-54.82
-55.58
-55.10
-53.10
-49.63
-45.15
-40.24
-35.45
-31.08
-27.13
-23.46
-19.87
-16.30
-12.79
-9.49
-6.56
-4.14
-2.17
-0.59
0.75
1.95
3.00
3.76
4.13
4.08
3.76
3.36
3.11
3.13
3.33
3.56
3.64
3.46
3.06
2.54
1.96
1.34
0.51
-0.74
-2.62
-5.27
-8.59
-12.27
-15.82
-18.79
-20.88
-22.10
-22.69
-23.01
-23.31
-23.69
-24.10
-24.50
-24.92
-25.53
-26.47
-27.79
-29.32
-30.72
-31.68
-32.02
-31.89
-31.60
-31.58
-32.17
-33.53
-35.54
-37.89
-40.09
-41.71
-42.48
-42.35
-41.38
-39.72
-37.50
-34.84
-32.07
-29.67
-28.19
-28.07
-29.36
-31.57
-34.00
-35.89
-36.86
-36.94
-36.56
-36.18
-35.96
-35.58
-34.07
-30.22
-22.88
-11.59
3.22
20.19
37.49
53.31
66.33
75.93
82.09
85.14
85.46
83.36
79.24
73.66
67.40
61.40
56.37
52.70
50.24
48.41
46.54
44.23
41.44
38.55
36.00
34.04
32.40
30.50
27.75
23.91
19.31
14.72
11.02
8.83
8.26
8.99
10.40
11.88
13.07
13.86
14.34
14.69
15.04
15.46
15.99
16.63
17.37
18.23
19.12
20.05
20.96
21.84
22.71
23.58
24.41
25.23
26.03
26.83
27.49
27.70
27.02
25.10
21.98
18.05
13.95
10.19
6.85
3.67
0.26
-3.50
-7.30
-10.55
-12.71
-13.61
-13.45
-12.69
-11.63
-10.34
-8.68
-6.48
-3.85
-1.03
1.63
3.92
5.76
7.23
8.48
9.56
10.46
11.10
11.40
11.33
10.96
10.36
9.63
8.72
7.58
6.09
4.14
1.79
-0.83
-3.56
-6.34
-9.21
-12.30
-15.78
-19.63
-23.82
-28.15
-32.55
-36.97
-41.43
-45.91
-50.25
-54.11
-57.07
-58.76
-59.04
-58.12
-56.53
-55.02
-54.30
-54.89
-56.93
-60.12
-63.84
-67.25
-69.63
-70.45
-69.62
-67.42
-64.44
-61.39
-58.92
-57.41
-56.94
-57.25
-57.96
-58.64
-59.09
-59.28
-59.34
-59.39
-59.40
-59.14
-58.31
-56.68
-54.19
-51.02
-47.41
-43.60
-39.62
-35.38
-30.63
-25.13
-18.48
-10.16
0.49
14.08
30.72
49.78
69.77
88.70
104.86
117.34
126.30
132.80
138.12
143.21
148.29
152.88
156.20
157.51
156.30
152.45
146.04
137.36
126.83
114.96
102.33
89.61
77.45
66.38
56.67
48.28
40.94
34.23
27.79
21.38
14.90
8.50
2.30
-3.49
-8.72
-13.22
-16.86
-19.51
-21.13
-21.78
-21.59
-20.78
-19.53
-18.10
-16.72
-15.66
-15.18
-15.41
-16.36
-17.82
-19.43
-20.77
-21.53
-21.60
-21.15
-20.50
-19.97
-19.71
-19.69
-19.78
-19.83
-19.82
-19.85
-19.98
-20.22
-20.42
-20.40
-20.05
-19.45
-18.83
-18.55
-18.88
-19.87
-21.33
-22.87
-24.05
-24.54
-24.12
-22.71
-20.37
-17.15
-13.24
-8.89
-4.51
-0.57
2.59
4.83
6.29
7.28
8.08
8.82
9.34
9.49
9.17
8.55
7.95
7.65
7.75
8.01
7.99
7.36
6.04
4.32
2.63
1.36
0.59
0.04
-0.69
-2.02
-4.06
-6.56
-9.15
-11.43
-13.26
-14.76
-16.21
-17.74
-19.22
-20.22
-20.24
-18.94
-16.40
-12.99
-9.37
-6.08
-3.44
-1.45
0.08
1.26
2.10
2.51
2.41
1.88
1.21
0.75
0.83
1.55
2.80
4.26
5.62
6.63
7.19
7.30
7.01
6.41
5.57
4.53
3.35
2.08
0.85
-0.26
-1.19
-2.00
-2.90
-4.13
-5.94
-8.30
-11.00
-13.54
-15.32
-15.85
-14.94
-12.74
-9.66
-6.19
-2.78
0.22
2.58
4.14
4.88
4.88
4.42
3.78
3.30
3.13
3.27
3.65
4.09
4.47
4.70
4.70
4.37
3.65
2.50
1.02
-0.62
-2.16
-3.45
-4.36
-4.99
-5.49
-6.07
-6.91
-8.11
-9.69
-11.60
-13.71
-15.84
-17.77
-19.18
-19.73
-19.16
-17.40
-14.59
-11.20
-7.76
-4.81
-2.66
-1.32
-0.61
-0.28
-0.13
-0.00
0.17
0.44
0.86
1.41
2.01
2.53
2.76
2.63
2.20
1.64
1.21
1.01
0.98
0.87
0.44
-0.46
-1.79
-3.34
-4.86
-6.20
-7.35
-8.44
-9.62
-11.06
-12.78
-14.68
-16.58
-18.17
-19.13
-19.19
-18.21
-16.21
-13.34
-9.87
-6.09
-2.36
0.92
3.45
4.93
5.38
5.01
4.26
3.64
3.52
4.01
4.95
6.06
6.98
7.55
7.74
7.65
7.38
6.94
6.29
5.36
4.16
2.81
1.54
0.53
-0.11
-0.48
-0.79
-1.27
-2.15
-3.48
-5.22
-7.20
-9.21
-10.99
-12.22
-12.62
-12.00
-10.35
-7.84
-4.81
-1.65
1.28
3.69
5.47
6.62
7.30
7.68
7.96
8.20
8.33
8.21
7.76
7.04
6.27
5.68
5.34
5.18
4.90
4.19
2.96
1.33
-0.37
-1.81
-2.77
-3.33
-3.71
-4.27
-5.26
-6.82
-8.95
-11.57
-14.42
-17.22
-19.52
-20.87
-20.94
-19.53
-16.77
-13.07
-9.01
-5.19
-2.00
0.30
1.69
2.24
2.15
1.70
1.20
0.93
1.02
1.41
1.99
2.65
3.44
4.58
6.27
8.59
11.36
14.18
16.56
18.13
18.79
18.63
17.93
16.93
15.83
14.69
13.44
12.00
10.25
8.21
6.06
4.10
2.73
2.20
2.61
3.88
5.84
8.28
11.00
13.72
16.07
17.62
18.14
17.65
16.51
15.26
14.40
14.05
14.05
14.00
13.55
12.65
11.49
10.36
9.44
8.65
7.77
6.51
4.83
2.95
1.24
0.05
-0.56
-0.79
-1.08
-1.87
-3.40
-5.64
-8.31
-11.02
-13.47
-15.43
-16.82
-17.57
-17.63
-16.94
-15.52
-13.41
-10.80
-7.95
-5.18
-2.75
-0.88
0.40
1.21
1.78
2.38
3.12
4.01
4.90
5.58
5.90
5.86
5.55
5.16
4.86
4.69
4.59
4.40
3.87
2.87
1.40
-0.42
-2.30
-4.04
-5.60
-7.14
-8.97
-11.25
-13.89
-16.44
-18.30
-18.94
-18.19
-16.26
-13.63
-10.83
-8.15
-5.65
-3.29
-1.04
0.94
2.46
3.38
3.81
4.02
4.35
4.92
5.69
6.39
6.80
6.83
6.53
6.12
5.72
5.35
4.83
3.97
2.63
0.88
-1.00
-2.68
-3.90
-4.60
-4.97
-5.36
-6.12
-7.45
-9.30
-11.39
-13.31
-14.72
-15.35
-15.14
-14.11
-12.41
-10.18
-7.61
-4.81
-1.86
1.21
4.34
7.36
10.00
11.94
12.94
12.94
12.21
11.20
10.40
10.09
10.22
10.54
10.72
10.60
10.19
9.67
9.13
8.46
7.44
5.91
3.93
1.89
0.18
-1.00
-1.83
-2.77
-4.29
-6.55
-9.26
-11.83
-13.66
-14.34
-13.88
-12.53
-10.64
-8.43
-5.97
-3.33
-0.60
1.97
4.08
5.48
6.06
5.96
5.44
4.89
4.58
4.67
5.16
5.91
6.75
7.48
7.89
7.82
7.14
5.82
3.94
1.70
-0.65
-2.83
-4.63
-5.93
-6.74
-7.21
-7.66
-8.44
-9.80
-11.75
-13.89
-15.66
-16.50
-16.18
-14.94
-13.28
-11.77
-10.65
-9.89
-9.20
-8.30
-7.14
-5.87
-4.79
-4.04
-3.65
-3.49
-3.40
-3.27
-3.14
-3.07
-3.14
-3.37
-3.73
-4.24
-4.96
-6.02
-7.53
-9.56
-12.03
-14.70
-17.26
-19.33
-20.71
-21.32
-21.38
-21.23
-21.22
-21.67
-22.68
-24.13
-25.79
-27.36
-28.64
-29.58
-30.30
-31.02
-31.92
-33.10
-34.55
-36.26
-38.15
-40.14
-42.10
-43.81
-45.06
-45.72
-45.80
-45.47
-44.95
-44.39
-43.75
-42.83
-41.30
-38.72
-34.77
-29.22
-22.04
-13.36
-3.41
7.54
19.29
31.69
44.50
57.27
69.32
79.87
88.29
94.39
98.46
101.18
103.25
105.12
106.85
108.15
108.66
108.17
106.77
104.70
102.22
99.41
96.18
92.42
88.26
84.08
80.46
77.88
76.39
75.49
74.20
71.52
66.81
60.13
52.12
43.77
36.05
29.48
24.17
19.81
15.96
12.31
8.70
5.18
1.82
-1.45
-4.79
-8.44
-12.46
-16.66
-20.65
-23.99
-26.45
-28.07
-29.16
-30.06
-30.92
-31.62
-31.81
-31.17
-29.63
-27.41
-24.90
-22.46
-20.27
-18.25
-16.20
-14.04
-11.83
-9.73
-7.95
-6.52
-5.38
-4.45
-3.69
-3.20
-3.10
-3.49
-4.27
-5.34
-6.46
-7.52
-8.40
-9.10
-9.62
-10.01
-10.33
-10.68
-11.13
-11.69
-12.24
-12.61
-12.61
-12.15
-11.30
-10.20
-9.03
-7.88
-6.75
-5.66
-4.74
-4.14
-4.08
-4.58
-5.49
-6.50
-7.27
-7.67
-7.74
-7.70
-7.69
-7.74
-7.69
-7.31
-6.51
-5.36
-4.12
-3.06
-2.39
-2.24
-2.60
-3.44
-4.68
-6.17
-7.72
-9.13
-10.30
-11.21
-11.94
-12.53
-12.94
-12.96
-12.41
-11.24
-9.65
-7.99
-6.57
-5.47
-4.52
-3.51
-2.31
-1.09
-0.20
0.07
-0.33
-1.11
-1.83
-2.10
-1.86
-1.35
-1.00
-1.15
-1.92
-3.12
-4.43
-5.51
-6.17
-6.42
-6.49
-6.56
-6.77
-7.07
-7.36
-7.56
-7.77
-8.16
-8.98
-10.26
-11.83
-13.25
-13.96
-13.57
-11.91
-9.24
-6.03
-2.88
-0.29
1.55
2.63
3.13
3.23
3.05
2.59
1.81
0.78
-0.34
-1.26
-1.75
-1.75
-1.32
-0.71
-0.13
0.26
0.40
0.28
-0.09
-0.67
-1.42
-2.35
-3.51
-4.96
-6.78
-8.95
-11.38
-13.77
-15.85
-17.34
-18.11
-18.15
-17.50
-16.22
-14.42
-12.31
-10.24
-8.57
-7.59
-7.27
-7.36
-7.43
-7.16
-6.47
-5.54
-4.71
-4.21
-4.07
-4.03
-3.82
-3.24
-2.36
-1.39
-0.60
-0.16
-0.08
-0.16
-0.11
0.41
1.74
4.03
7.28
11.24
15.48
19.51
22.87
25.31
26.79
27.53
27.96
28.57
29.74
31.69
34.29
37.14
39.64
41.23
41.53
40.57
38.69
36.34
33.94
31.64
29.37
27.00
24.46
21.85
19.42
17.51
16.39
16.18
16.85
18.24
20.15
22.30
24.40
26.16
27.38
28.10
28.64
29.48
31.07
33.60
36.85
40.33
43.44
45.80
47.32
48.24
48.95
49.84
51.17
53.06
55.49
58.35
61.30
63.88
65.54
65.95
65.11
63.44
61.59
60.16
59.41
59.25
59.26
59.07
58.47
57.45
56.09
54.36
52.07
48.92
44.65
39.18
32.65
25.33
17.56
9.72
2.17
-4.70
-10.57
-15.24
-18.85
-21.84
-24.90
-28.84
-34.22
-41.28
-49.84
-59.53
