1574756113.00
64.000000
-0.00
-0.00
-0.00
-0.00
-0.00
-0.00
-0.00
-0.00
-0.00
-0.00
0.00
0.01
0.01
-0.00
-0.03
-0.05
-0.05
0.00
0.13
0.36
0.66
1.01
1.37
1.72
2.06
2.40
2.79
3.24
3.80
4.42
5.06
5.66
6.20
6.68
7.15
7.68
8.31
9.14
10.09
11.04
11.88
12.56
13.14
13.76
14.65
15.96
17.91
20.32
22.90
25.38
27.58
29.57
31.68
34.32
37.81
42.54
48.15
54.10
59.83
64.97
69.58
74.14
79.34
85.71
93.76
103.00
112.62
121.73
129.77
136.75
143.30
150.75
157.77
166.64
177.95
191.79
206.97
220.57
228.25
225.36
208.53
176.87
132.76
80.05
23.07
-34.94
-92.44
-149.15
-205.22
-260.36
-313.73
-363.85
-409.81
-450.87
-486.46
-515.68
-537.16
-549.14
-549.86
-538.25
-514.07
-478.51
-433.68
-382.22
-326.74
-269.51
-212.25
-156.21
-102.43
-51.78
-5.23
36.33
72.26
102.28
126.53
145.51
159.93
170.50
177.85
182.36
184.33
183.99
181.61
177.53
172.18
165.96
159.21
152.18
145.02
137.79
130.54
123.31
116.16
109.17
102.40
95.90
89.72
83.85
78.33
73.15
68.32
63.88
59.83
56.16
52.86
49.92
47.29
44.95
42.84
40.93
39.15
37.48
35.92
34.44
33.09
31.85
30.78
29.86
29.08
28.35
27.58
26.65
25.41
23.72
21.48
18.52
14.86
10.52
5.65
0.39
-5.03
-10.37
-15.40
-19.86
-23.55
-26.29
-27.99
-28.61
-28.15
-26.71
-24.44
-21.54
-18.24
-14.79
-11.46
-8.48
-6.07
-4.39
-3.52
-3.44
-4.04
-5.14
-6.49
-7.79
-8.75
-9.16
-8.79
-7.51
-5.25
-2.06
1.97
6.72
12.02
17.66
23.42
29.23
35.08
41.03
47.25
53.97
61.46
70.00
79.63
90.38
102.14
114.74
127.93
141.37
154.71
167.55
179.64
190.48
199.77
207.23
212.68
215.96
216.91
215.26
210.60
203.87
195.51
185.90
175.35
164.14
152.44
140.48
128.41
116.52
105.12
94.37
84.47
75.61
67.92
61.52
56.40
52.53
49.80
48.11
47.11
46.49
45.91
44.96
43.29
40.57
36.60
31.36
25.04
17.88
10.29
2.63
-4.82
-12.01
-19.00
-25.97
-33.01
-40.07
-46.99
-53.55
-59.65
-65.41
-71.30
-77.91
-85.79
-95.16
-105.76
-116.88
-127.67
-137.41
-145.97
-153.83
-161.98
-171.56
-183.34
-197.49
-213.48
-230.30
-246.89
-262.50
-277.15
-291.54
-307.26
-326.32
-350.38
-379.83
-412.57
-443.90
-467.27
-476.32
-467.26
-440.43
-400.43
-354.39
-309.50
-270.71
-239.68
-215.44
-195.82
-178.88
-163.79
-150.47
-139.29
-130.61
-124.50
-120.68
-118.44
-116.44
-112.44
-103.46
-86.70
-60.94
-28.21
6.53
36.61
56.59
64.81
63.97
59.90
58.37
62.48
71.76
83.34
94.38
103.67
111.86
120.00
127.63
132.84
132.85
126.41
114.93
102.06
92.09
87.61
88.16
90.73
91.71
88.88
82.41
74.36
67.14
62.06
59.13
57.24
55.69
54.66
55.20
58.57
64.81
72.74
80.02
84.46
85.01
82.20
77.84
74.02
72.18
72.50
73.66
74.05
72.17
67.98
62.79
58.44
56.44
56.72
57.60
56.74
52.62
45.60
37.90
32.40
30.93
33.04
36.33
37.21
33.15
23.60
10.18
-4.12
-16.61
-25.63
-31.06
-33.49
-33.54
-31.36
-26.62
-19.05
-8.98
2.34
12.61
19.63
21.74
19.11
13.68
8.14
4.98
4.82
6.33
7.05
5.20
0.96
-3.41
-4.77
-1.09
7.24
17.68
26.54
31.29
31.49
28.72
25.61
23.80
23.31
22.56
19.71
13.87
5.84
-2.35
-8.44
-11.02
-10.20
-7.81
-6.15
-7.46
-12.61
-20.96
-30.94
-40.35
-47.53
-51.53
-52.09
-48.87
-41.38
-29.15
-12.61
6.29
24.07
36.89
41.79
38.49
29.33
18.24
9.32
4.75
4.45
6.69
9.48
11.77
13.87
16.65
20.73
25.78
30.63
33.63
33.81
31.04
26.41
21.61
17.83
15.54
13.98
11.94
8.48
3.61
-1.60
-5.59
-7.26
-6.46
-4.24
-2.04
-1.29
-2.29
-4.41
-6.50
-7.28
-6.44
-4.55
-2.82
-2.40
-3.67
-5.81
-7.17
-5.76
-0.15
9.92
22.99
36.83
48.91
57.59
62.75
65.18
66.33
67.06
67.54
67.36
66.31
64.77
63.80
64.44
66.96
70.37
72.71
71.41
64.75
52.20
34.54
13.70
-8.47
-30.50
-51.51
-70.78
-87.33
-99.68
-106.38
-106.60
-100.71
-90.40
-78.44
-67.27
-58.50
-52.21
-47.18
-41.99
-35.65
-28.41
-21.47
-16.45
-14.50
-15.84
-19.79
-25.14
-30.84
-36.29
-41.13
-45.34
-48.33
-49.18
-46.92
-40.83
-31.43
-20.32
-9.90
-2.37
1.17
1.06
-1.14
-3.46
-4.42
-3.52
-1.58
0.35
1.39
1.65
2.32
4.57
9.06
15.05
20.81
24.55
25.58
24.92
24.78
27.40
33.59
42.15
50.53
55.78
56.38
52.63
46.28
39.71
34.36
30.48
27.32
24.07
20.60
17.69
16.34
17.08
19.34
21.55
21.47
17.66
9.93
-0.21
-9.98
-16.74
-18.78
-16.22
-10.62
-4.19
1.27
5.02
7.41
9.34
11.47
13.65
15.32
15.52
14.14
11.99
10.50
11.45
15.54
22.18
29.53
35.51
38.83
39.69
39.50
39.91
41.80
44.73
46.76
46.11
41.66
33.88
24.60
15.70
8.36
2.29
-3.77
-11.12
-20.11
-29.95
-39.01
-45.88
-50.15
-52.76
-55.26
-59.33
-65.54
-73.32
-81.52
-88.79
-94.58
-99.01
-102.52
-105.13
-106.01
-103.59
-96.24
-83.26
-65.36
-44.81
-25.07
-9.13
1.20
6.10
7.57
7.99
9.22
11.58
14.17
15.71
15.72
14.94
15.19
18.20
24.80
34.15
44.40
53.16
59.04
62.14
63.75
65.81
69.41
74.36
79.11
81.76
81.07
77.08
70.99
64.25
57.91
52.20
46.65
41.08
35.85
31.97
30.59
31.91
35.13
38.39
39.76
38.10
33.55
27.26
20.86
15.53
11.69
8.89
6.44
3.65
0.41
-2.86
-5.70
-7.62
-8.80
-9.66
-10.82
-12.54
-14.52
-16.09
-16.61
-15.92
-14.57
-13.58
-14.08
-16.45
-20.35
-24.73
-28.28
-30.41
-31.25
-31.82
-33.36
-36.64
-41.57
-47.10
-51.70
-53.93
-53.04
-49.24
-43.38
-36.75
-30.36
-24.63
-19.63
-14.98
-10.80
-7.39
-5.38
-5.17
-6.51
-8.50
-10.02
-10.24
-9.08
-7.08
-5.39
-4.66
-5.07
-6.08
-6.62
-5.97
-3.84
-0.65
2.78
5.56
7.19
7.65
7.41
7.02
6.95
7.10
7.14
6.46
4.70
1.89
-1.73
-5.75
-10.12
-14.95
-20.31
-25.82
-30.42
-32.71
-31.54
-26.72
-19.28
-11.04
-4.16
-0.00
1.08
-0.24
-2.62
-5.00
-6.81
-8.23
-9.71
-11.49
-13.25
-14.17
-13.35
-10.38
-5.65
-0.40
3.96
6.25
6.23
4.63
2.57
1.23
0.87
1.08
0.95
-0.14
-2.03
-3.73
-4.06
-2.31
1.02
4.45
5.79
3.54
-2.71
-11.89
-21.71
-29.95
-34.90
-35.98
-33.54
-28.41
-21.54
-13.80
-5.91
1.46
7.66
12.03
14.20
13.94
11.60
7.99
4.05
0.88
-0.99
-1.58
-1.43
-1.18
-1.21
-1.37
-1.23
-0.45
0.71
1.48
0.65
-2.38
-7.42
-13.33
-18.36
-21.25
-21.55
-19.94
-17.68
-15.92
-15.19
-15.24
-15.39
-15.04
-14.09
-13.18
-13.19
-14.99
-18.74
-23.79
-28.99
-32.84
-34.43
-33.40
-30.04
-24.91
-18.47
-10.98
-2.55
6.45
15.29
22.92
28.07
30.15
29.29
26.50
23.45
21.37
20.89
21.59
22.50
22.73
22.10
21.11
20.69
21.49
23.52
25.93
27.59
27.52
25.51
22.22
18.49
15.24
12.57
10.15
7.36
3.93
0.15
-3.15
-5.15
-5.57
-4.89
-4.15
-4.65
-6.98
-10.98
-15.85
-20.45
-24.30
-27.47
-30.60
-34.20
-38.10
-41.26
-42.16
-39.44
-32.67
-22.70
-11.50
-1.32
5.98
9.70
10.43
9.27
7.52
5.63
3.45
0.50
-3.32
-7.37
-10.42
-11.35
-9.74
-6.23
-2.16
0.92
2.30
2.16
1.39
1.08
1.60
2.58
3.03
2.03
-0.62
-4.19
-7.48
-9.38
-9.49
-8.28
-7.03
-7.02
-9.17
-13.54
-19.26
-25.16
-29.83
-32.40
-32.44
-30.02
-25.52
-19.39
-12.07
-4.10
3.85
10.91
16.24
19.15
19.71
18.57
16.89
16.00
16.53
18.46
21.16
23.86
26.16
28.22
30.48
33.37
36.81
40.14
42.16
41.82
38.43
32.08
23.70
14.39
5.41
-2.69
-9.72
-15.87
-21.21
-25.58
-28.70
-30.50
-31.47
-32.49
-34.31
-37.14
-39.99
-41.22
-39.14
-32.76
-22.69
-10.64
0.98
10.28
16.58
20.50
23.41
26.77
31.41
37.38
43.73
49.25
52.77
53.90
53.32
52.17
51.84
52.78
54.56
55.95
55.73
53.38
49.34
44.63
40.08
35.77
31.06
24.84
16.76
7.38
-1.87
-9.21
-13.81
-15.85
-16.77
-18.33
-21.82
-27.37
-34.07
-40.32
-44.70
-46.47
-45.90
-43.65
-40.52
-36.88
-32.47
-26.92
-19.72
-10.75
-0.14
11.65
23.96
35.79
45.87
52.71
54.97
51.81
43.39
30.69
15.60
0.28
-13.41
-24.04
-31.14
-34.89
-35.96
-35.12
-32.97
-29.87
-25.99
-21.50
-16.59
-11.46
-6.54
-2.02
1.79
4.70
6.61
7.15
5.96
2.46
-3.60
-11.95
-21.42
-29.99
-35.27
-35.47
-30.18
-20.80
-9.94
-0.66
5.19
7.53
7.86
8.58
11.32
16.32
22.42
27.94
31.74
33.81
34.94
36.03
37.33
38.34
37.88
35.36
30.88
25.51
20.76
17.51
15.86
14.87
13.39
10.67
6.90
3.05
0.44
-0.03
1.67
4.54
6.97
7.06
3.74
-3.01
-12.04
-21.15
-28.26
-31.82
-31.31
-26.98
-19.33
-8.74
4.56
20.04
36.51
52.08
64.35
71.69
73.53
70.89
65.85
60.38
55.81
52.23
49.03
45.56
41.77
38.28
35.98
35.30
35.86
36.34
35.25
31.19
23.85
13.87
2.51
-8.64
-18.68
-27.47
-35.62
-43.74
-51.82
-58.95
-63.65
-64.88
-62.71
-58.72
-55.67
-55.62
-59.19
-64.74
-68.93
-68.56
-61.76
-49.02
-32.66
-15.70
-0.58
11.45
20.20
26.00
29.21
29.99
28.83
26.43
24.25
23.85
26.16
31.27
37.66
43.01
44.99
42.47
36.10
28.09
21.07
16.84
15.58
16.05
16.03
14.13
10.08
4.96
0.49
-2.39
-3.91
-5.75
-10.03
-18.25
-30.41
-44.86
-58.86
-69.62
-75.36
-75.85
-72.12
-66.33
-60.40
-55.72
-52.92
-51.51
-50.71
-49.48
-46.93
-42.25
-34.81
-24.20
-10.61
5.03
21.09
35.62
46.54
52.84
54.57
53.00
50.29
48.27
48.11
49.68
51.99
53.82
54.37
53.47
51.39
48.40
44.44
38.97
31.53
21.80
10.38
-1.47
-12.41
-21.06
-26.98
-30.32
-31.57
-30.90
-27.88
-21.76
-12.06
0.69
14.82
27.98
37.62
42.48
42.62
39.53
35.43
31.98
29.91
28.74
27.50
25.47
22.75
20.19
18.92
19.58
21.94
24.71
26.34
25.34
21.27
14.80
7.10
-0.20
-6.28
-11.09
-15.26
-19.39
-23.50
-26.91
-28.64
-28.13
-25.77
-22.78
-21.03
-21.51
-24.07
-27.24
-28.70
-26.81
-21.17
-13.05
-4.54
2.43
7.11
9.89
12.00
14.49
17.53
20.20
21.20
19.29
14.47
7.85
0.98
-4.62
-8.60
-11.70
-15.26
-20.27
-26.65
-33.17
-38.03
-39.93
-38.66
-35.25
-31.75
-29.84
-30.42
-33.20
-36.88
-40.39
-43.19
-45.79
-49.07
-53.57
-58.69
-62.70
-63.29
-58.66
-48.37
-33.78
-17.16
-1.17
12.55
23.66
32.64
40.56
47.77
53.94
58.22
60.09
59.97
59.18
59.37
61.56
65.57
70.02
72.79
72.50
68.80
62.69
55.99
49.91
44.77
39.71
33.60
25.94
17.40
9.56
4.09
1.76
1.97
2.80
2.11
-1.76
-8.83
-17.54
-25.62
-30.67
-31.60
-28.76
-23.63
-17.91
-12.61
-7.69
-2.49
3.48
9.95
15.90
19.67
20.41
18.22
14.35
10.71
8.58
8.31
9.07
9.69
9.34
8.16
7.05
7.08
8.75
11.47
13.56
13.38
9.78
3.20
-4.55
-11.33
-15.31
-16.22
-15.18
-14.11
-14.53
-16.86
-20.31
-23.54
-25.63
-26.53
-26.93
-27.86
-29.42
-30.82
-30.61
-27.25
-20.47
-11.27
-1.86
5.53
9.63
10.68
10.03
9.41
9.90
11.49
13.06
13.45
11.79
8.39
4.45
1.20
-0.38
-0.50
-0.06
-0.18
-1.33
-3.04
-4.14
-3.52
-0.96
2.64
5.72
6.40
3.98
-1.09
-7.33
-12.81
-16.46
-18.28
-19.45
-21.40
-24.99
-29.89
-34.62
-37.17
-35.96
-30.61
-22.32
-13.06
-5.08
0.46
3.74
5.77
7.97
10.77
13.60
15.15
14.49
11.81
8.65
7.04
8.41
12.68
18.36
23.02
24.97
23.82
20.57
17.25
15.30
15.19
16.08
16.67
15.95
13.86
11.18
9.04
8.19
8.55
8.98
8.18
4.94
-0.84
-8.11
-15.39
-21.06
-24.58
-26.35
-27.41
-28.41
-29.01
-27.82
-23.27
-14.68
-3.09
8.96
18.10
22.11
20.64
15.36
9.30
4.91
3.16
3.17
3.14
1.62
-1.52
-5.21
-7.88
-8.58
-7.55
-6.41
-6.76
-9.68
-14.80
-20.57
-25.45
-28.38
-29.59
-30.05
-30.81
-32.04
-32.96
-32.12
-28.35
-21.59
-13.15
-5.27
-0.58
-0.57
-5.20
-12.83
-20.64
-26.19
-28.14
-26.89
-23.96
-21.15
-19.46
-18.89
-18.54
-17.37
-14.72
-10.86
-6.32
-1.79
2.61
7.43
13.24
20.55
28.95
37.44
44.71
49.81
52.54
53.54
53.82
54.18
54.66
54.69
53.01
48.95
42.44
34.36
26.28
19.37
14.05
9.68
5.21
-0.13
-6.10
-11.55
-14.89
-14.94
-11.70
-6.50
-1.09
2.85
4.65
4.76
3.90
2.82
1.41
-0.89
-4.62
-9.62
-14.85
-18.72
-19.86
-17.74
-12.97
-6.91
-1.42
2.31
3.81
3.39
2.00
0.32
-1.39
-3.49
-6.52
-10.79
-16.01
-21.37
-25.93
-29.12
-31.19
-33.42
-37.22
-43.82
-53.20
-63.86
-73.52
-79.64
-80.89
-77.47
-71.10
-64.02
-57.96
-53.52
-50.39
-47.98
-46.09
-44.79
-44.15
-43.26
-40.42
-33.92
-22.91
-8.64
6.11
18.14
25.60
28.87
30.27
32.58
37.49
44.82
52.90
59.32
62.70
62.78
60.72
58.34
57.13
57.97
60.57
63.90
66.62
67.91
67.83
67.33
67.73
69.85
73.32
76.89
78.58
77.30
73.27
67.95
63.56
61.32
60.84
60.05
56.61
49.28
38.95
28.29
20.38
17.15
18.37
21.43
23.09
20.63
13.28
2.33
-10.25
-22.66
-34.36
-45.79
-57.59
-69.46
-79.99
-87.12
-89.16
-85.84
-78.61
-69.93
-62.69
-58.65
-58.11
-60.23
-63.32
-66.14
-68.10
-69.28
-69.76
-69.24
-66.90
-61.82
-53.60
-42.67
-30.20
-17.93
-7.00
2.02
9.45
16.16
22.61
28.79
33.92
37.04
37.54
35.57
32.02
28.12
24.90
22.77
21.30
19.69
17.03
12.97
7.74
1.90
-3.89
-9.45
-15.00
-20.95
-27.49
-34.31
-40.79
-46.35
-50.99
-55.39
-60.76
-68.44
-79.11
-92.59
-107.83
-123.29
-137.83
-150.97
-163.23
-175.70
-189.37
-204.37
-219.47
-231.96
-238.20
-234.79
-220.03
-194.85
-162.69
-128.28
-95.94
-68.34
-45.98
-27.79
-11.52
5.54
26.18
52.66
85.87
124.41
164.47
200.77
228.46
244.88
250.64
248.73
242.92
236.14
229.59
223.49
217.85
213.30
211.11
212.61
218.43
228.11
240.18
252.69
263.96
273.14
280.06
285.00
287.89
287.90
283.76
273.91
257.39
234.07
204.70
170.58
133.16
93.89
54.16
15.62
-19.78
-50.18
-73.93
-90.52
-100.75
-106.65
-111.16
-116.98
-125.92
-138.14
-152.26
-165.84
-176.33
-181.91
-181.92
-176.82
-167.93
-156.73
-144.63
-132.39
-120.06
-107.29
-93.48
-78.79
-64.04
-50.80
-40.52
-33.91
-30.55
-29.13
-28.21
-26.85
-24.74
-22.17
-19.10
-15.18
-9.84
-2.73
5.27
12.32
15.86
13.74
5.00
-9.70
-28.27
-47.71
-64.75
-76.31
-80.14
-75.11
-61.80
-42.33
-20.04
1.38
18.94
30.80
36.56
36.76
32.44
24.83
15.30
5.32
-3.54
-10.00
-13.31
-13.87
-12.76
-11.48
-11.31
-12.67
-15.34
-18.42
-21.04
-22.59
-22.94
-22.41
-21.46
-20.46
-19.56
-18.68
-17.73
-16.57
-15.08
-12.84
-9.19
-3.42
4.89
15.18
26.10
35.80
42.78
46.64
48.16
48.81
49.87
51.55
52.88
52.01
47.51
38.99
27.66
15.83
5.63
-1.82
-7.08
-11.85
-17.85
-25.75
-34.76
-43.11
-49.02
-51.73
-51.81
-50.54
-49.14
-47.92
-46.26
-43.29
-38.40
-32.12
-25.82
-21.20
-19.34
-20.04
-21.70
-21.99
-18.94
-11.90
-1.81
9.19
19.23
27.36
34.01
40.39
47.19
54.12
59.87
62.99
63.02
60.79
57.91
55.87
55.05
54.56
52.68
47.84
39.30
27.49
13.81
-0.05
-12.50
-22.66
-30.38
-36.13
-40.68
-44.79
-49.00
-53.63
-58.79
-64.55
-70.73
-77.02
-82.49
-85.93
-86.08
-82.09
-74.19
-63.57
-52.24
-42.16
-34.47
-29.09
-24.94
-20.61
-15.28
-9.18
-3.56
0.05
0.69
-1.39
-4.80
-7.77
-8.90
-8.01
-5.98
-4.24
-3.84
-4.72
-5.67
-4.82
-0.58
7.60
18.93
31.40
42.82
51.31
55.96
56.92
54.95
51.29
47.20
43.86
42.26
43.06
46.26
51.20
56.62
61.02
63.13
62.31
58.69
53.03
46.36
39.47
32.94
26.83
21.07
15.57
10.36
5.63
1.64
-1.47
-3.69
-5.19
-6.19
-7.03
-7.88
-8.80
-9.68
-10.35
-10.84
-11.47
-12.91
-15.96
-21.17
-28.61
-37.67
-47.23
-56.00
-62.82
-66.97
-68.27
-66.96
-63.61
-58.99
-54.05
-49.70
-46.64
-45.05
-44.45
-43.93
-42.52
-39.74
-35.82
-31.64
-28.18
-26.09
-25.36
-25.49
-25.92
-26.37
-26.99
-28.11
-29.90
-32.18
-34.49
-36.33
-37.45
-37.89
-37.87
-37.63
-37.14
-36.06
-33.86
-30.14
-24.94
-18.99
-13.62
-10.33
-10.13
-12.97
-17.64
-22.28
-25.30
-26.07
-25.10
-23.53
-22.39
-22.11
-22.64
-23.62
-24.49
-24.23
-21.13
-13.16
1.20
21.70
45.81
69.23
87.39
97.26
98.20
91.87
80.84
67.42
53.09
38.55
24.45
11.92
2.71
-1.33
1.06
9.92
23.80
40.05
55.56
67.75
75.30
78.35
78.10
75.96
72.93
69.32
65.02
59.95
54.46
49.09
44.48
40.93
38.42
36.73
35.63
34.95
34.48
34.08
33.51
32.53
31.00
28.96
26.65
24.44
22.73
21.78
21.64
22.09
22.63
22.71
21.92
20.18
17.81
15.36
13.36
12.18
11.88
12.38
13.50
15.11
17.11
19.31
21.48
23.34
24.65
25.31
25.43
25.29
25.24
25.43
25.73
25.56
23.96
19.87
12.50
1.83
-11.26
-25.05
-37.62
-47.40
-53.74
-56.79
-57.15
-55.29
-51.22
-44.68
-35.67
-24.96
-14.21
-5.49
-0.45
0.29
-2.66
-7.90
-13.95
-19.89
-25.53
-31.22
-37.35
-44.06
-51.04
-57.74
-63.42
-67.47
-69.40
-68.98
-66.16
-61.00
-53.75
-44.84
-34.89
-24.72
-15.22
-7.21
-1.26
2.47
4.16
4.38
3.75
2.89
2.17
1.80
1.81
2.17
2.86
3.82
4.99
6.20
7.24
7.85
7.81
6.97
5.33
3.05
0.46
-2.04
-3.95
-4.84
-4.49
-3.05
-1.01
0.94
2.06
1.85
0.13
-2.93
-6.84
-10.93
-14.46
-16.66
-16.90
-14.89
-10.84
-5.43
0.28
5.27
8.77
10.45
10.50
9.40
7.80
6.27
5.21
4.83
5.14
5.99
7.17
8.43
9.55
10.31
10.58
10.33
9.55
8.38
7.00
5.54
4.05
2.49
0.73
-1.31
-3.64
-6.19
-8.77
-11.15
-13.18
-14.79
-16.01
-17.01
-17.98
-19.11
-20.47
-21.99
-23.43
-24.39
-24.42
-23.15
-20.42
-16.36
-11.40
-6.15
-1.22
2.94
6.10
8.29
9.58
10.06
9.81
9.04
7.99
7.02
6.48
6.56
7.22
8.18
9.07
9.53
9.39
8.72
7.78
6.92
6.34
5.99
5.57
4.68
3.04
0.71
-1.91
-4.26
-5.81
-6.40
-6.24
-5.92
-6.04
-7.07
-9.19
-12.22
-15.73
-19.10
-21.67
-22.83
-22.15
-19.47
-14.97
-9.14
-2.72
3.43
8.57
12.14
13.91
13.97
12.64
10.41
7.87
5.49
3.66
2.63
2.45
3.08
4.31
5.80
7.20
8.17
8.54
8.41
8.03
7.72
7.67
7.77
7.63
6.78
4.93
2.10
-1.23
-4.36
-6.63
-7.67
-7.55
-6.79
-6.17
-6.45
-8.14
-11.17
-14.97
-18.49
-20.57
-20.41
-17.73
-12.97
-7.09
-1.19
3.85
7.57
9.96
11.29
11.97
12.33
12.67
13.22
14.24
16.00
18.61
21.97
25.75
29.38
32.33
34.24
35.11
35.29
35.28
35.52
36.19
37.16
38.10
38.68
38.83
38.72
38.73
39.14
40.04
41.20
42.20
42.69
42.63
42.26
41.99
42.08
42.44
42.70
42.45
41.54
40.19
38.82
37.64
36.28
33.79
28.98
20.99
9.72
-4.02
-18.89
-33.35
-46.05
-55.96
-62.22
-64.13
-61.10
-52.79
-39.31
-21.43
-0.58
21.28
42.12
60.27
74.76
85.51
93.11
98.41
102.14
104.68
105.93
105.61
103.42
99.19
92.95
84.77
74.84
63.36
50.72
37.49
24.40
12.20
1.52
-7.28
-14.18
-19.45
-23.43
-26.45
-28.65
-29.92
-30.00
-28.61
-25.69
-21.61
-17.18
-13.44
-11.34
-11.34
-13.30
-16.67
-20.78
-25.13
-29.55
-33.91
-38.03
-41.63
-44.45
-46.71
-49.05
-52.35
-57.20
-63.46
-70.13
-75.74
-79.02
-79.43
-77.34
-73.78
-69.97
-66.86
-64.83
-63.83
-63.49
-63.49
-63.60
-63.63
-63.26
-61.92
-58.85
-53.35
-45.17
-34.64
-22.75
-10.61
0.83
11.35
21.34
31.45
42.14
53.16
63.71
72.69
79.23
83.00
84.26
83.57
81.41
77.95
73.02
66.43
58.18
48.68
38.69
29.07
20.48
13.07
6.47
0.00
-6.95
-14.52
-22.30
-29.48
-35.34
-39.63
-42.75
-45.49
-48.51
-51.83
-54.83
-56.74
-57.09
-56.09
-54.33
-52.17
-49.14
-44.06
-35.48
-22.74
-6.40
11.72
29.31
44.55
56.77
66.47
74.65
82.08
88.71
93.79
96.29
95.64
92.04
86.27
79.15
70.93
61.02
48.46
32.69
14.25
-5.13
-23.20
-38.14
-49.38
-57.66
-64.42
-70.84
-77.25
-82.96
-86.84
-87.88
-85.69
-80.62
-73.53
-65.35
-56.79
-48.18
-39.66
-31.39
-23.68
-17.10
-12.22
-9.45
-8.70
-9.38
-10.54
-11.21
-10.59
-8.39
-4.76
-0.20
4.59
8.86
11.86
12.97
11.84
8.38
2.85
-4.17
-11.98
-19.97
-27.71
-35.10
-42.13
-48.74
-54.68
-59.50
-62.79
-64.38
-64.43
-63.42
-61.81
-59.87
-57.52
-54.44
-50.26
-44.77
-38.10
-30.66
-23.06
-15.89
-9.56
-4.28
-0.04
3.30
5.97
8.17
10.11
11.91
13.61
15.15
16.50
17.66
18.82
20.44
23.05
27.11
32.63
39.00
45.02
49.24
50.49
48.33
43.20
36.20
28.60
21.29
14.49
7.84
0.86
-6.60
-14.00
-20.18
-23.80
-23.85
-20.13
-13.39
-5.13
2.84
8.95
12.30
12.80
11.03
7.96
4.62
1.87
0.28
0.09
1.24
3.41
6.11
8.83
11.23
13.17
14.62
15.54
15.72
14.67
11.86
6.92
-0.05
-8.41
-17.07
-24.81
-30.76
-34.66
-36.90
-38.21
-39.19
-40.12
-40.91
-41.42
-41.84
-42.70
-44.63
-47.88
-51.97
-55.82
-58.29
-58.82
-57.72
-56.18
-55.72
-57.60
-62.38
-69.65
-78.10
-85.70
-90.09
-89.07
-81.05
-65.60
-43.74
-17.75
9.27
34.08
54.40
69.72
81.54
92.66
105.26
119.38
131.96
137.89
132.43
113.44
82.86
45.94
9.22
-21.86
-44.41
-58.18
-64.56
-65.44
-62.55
-57.45
-51.47
-45.85
-41.32
-37.74
-34.39
-30.22
-24.63
-17.67
-10.21
-3.34
2.18
6.20
9.18
11.78
14.34
16.79
18.47
18.94
18.13
16.35
14.18
11.77
8.87
4.80
-0.90
-8.08
-15.90
-23.20
-28.94
-32.71
-34.78
-36.40
-38.71
-42.64
-48.02
-53.40
-56.67
-55.54
-48.94
-37.34
-22.81
-8.10
4.38
13.42
19.04
21.93
22.79
21.87
18.81
13.42
6.03
-2.30
-9.76
-14.92
-17.06
-16.56
-14.57
-12.26
-10.14
-7.95
-4.97
-0.72
4.58
9.52
12.72
13.06
10.74
7.22
4.34
3.60
4.93
6.70
6.32
1.63
-8.00
-21.03
-34.30
-44.35
-48.85
-47.22
-40.83
-31.65
-21.36
-10.85
-0.14
10.49
20.15
27.27
30.43
29.32
25.27
20.83
18.75
20.92
27.76
38.12
50.37
62.80
74.33
84.34
92.04
96.59
97.02
92.80
84.32
72.90
60.21
47.73
36.44
26.83
19.02
12.94
8.04
3.67
-0.73
-5.16
-8.50
-8.97
-4.77
4.94
19.39
36.13
51.74
62.77
66.74
62.81
51.93
36.41
19.26
3.13
-10.33
-20.43
-27.21
-30.44
-29.61
-24.28
-14.91
-3.26
7.97
16.30
20.66
21.83
21.74
22.30
24.17
26.73
28.68
29.06
27.87
25.75
23.55
21.59
19.63
16.97
12.86
6.77
-1.39
-11.16
-21.53
-31.01
-37.78
-40.14
-36.91
-27.84
-14.10
1.98
17.21
28.58
34.29
34.30
30.28
24.61
19.24
15.05
12.08
10.34
10.43
13.55
20.55
30.82
42.09
50.94
54.57
51.96
44.28
34.14
24.15
15.69
8.71
2.20
-4.87
-13.06
-22.11
-31.56
-41.03
-50.29
-59.35
-67.80
-74.85
-79.17
-79.21
-73.92
-63.23
-48.33
-31.55
-15.63
-2.95
5.19
8.72
8.64
6.36
3.08
-0.39
-3.91
-7.46
-10.93
-13.80
-15.26
-14.48
-11.17
-5.75
0.70
6.81
11.32
13.71
14.13
13.23
11.81
10.04
7.67
4.04
-1.27
-8.01
-15.26
-21.76
-26.33
-28.37
-27.88
-25.23
-20.92
-15.54
-9.62
-3.71
1.68
6.44
10.78
15.24
20.30
25.94
31.58
36.27
39.09
39.57
37.88
34.68
30.65
26.43
22.38
18.65
15.50
13.05
11.54
10.96
11.14
11.71
12.27
12.48
12.23
11.58
10.71
9.65
8.22
5.86
1.90
-4.24
-12.70
-22.88
-33.58
-42.98
-49.15
-50.41
-45.62
-34.43
-17.48
3.68
26.62
48.46
66.41
78.49
84.01
83.72
79.37
72.70
64.99
56.63
47.59
37.94
28.35
19.88
13.46
9.35
6.81
4.44
0.78
-5.12
-13.28
-22.94
-33.05
-42.47
-50.73
-57.89
-64.50
-71.31
-78.83
-87.05
-95.44
-102.86
-107.67
-107.78
-101.00
-85.44
-60.45
-27.17
11.32
50.43
85.48
112.98
131.61
142.24
147.13
148.69
148.47
146.78
142.99
136.03
125.31
110.92
93.89
75.89
58.64
43.52
31.02
20.99
12.84
6.08
0.52
-3.77
-6.78
-8.77
-10.22
-11.59
-13.09
-14.53
-15.58
-16.08
-16.19
-16.55
-17.73
-19.94
-22.70
-24.84
-24.89
-21.72
-14.98
-5.27
5.98
16.92
25.73
31.00
31.97
28.44
20.66
9.18
-5.37
-22.10
-39.85
-57.12
-72.10
-83.00
-88.56
-88.44
-83.42
-75.22
-66.05
-57.82
-51.67
-47.82
-45.65
-44.38
-43.38
-42.52
-42.05
-42.33
-43.61
-45.82
-48.71
-52.06
-55.72
-59.71
-63.91
-67.99
-71.26
-72.90
-72.28
-69.10
-63.73
-56.81
-49.08
-41.10
-33.11
-25.24
-17.68
-10.82
-5.16
-1.11
1.16
1.91
1.55
0.65
-0.25
-0.84
-0.80
-0.07
1.30
3.11
4.96
6.36
6.84
6.09
4.11
1.22
-1.98
-4.86
-6.84
-7.72
-7.75
-7.47
-7.86
-9.80
-13.80
-19.63
-26.13
-31.27
-32.79
-28.92
-19.35
-5.49
9.59
22.58
30.93
33.86
32.59
29.15
25.64
23.11
21.55
20.47
19.56
19.13
19.85
22.23
26.05
30.20
33.36
34.34
33.01
30.19
27.11
25.04
24.24
24.09
23.34
20.95
16.66
11.29
6.22
2.64
0.91
0.44
-0.06
-1.66
-4.82
-9.25
-14.03
-18.42
-21.90
-24.27
-25.33
-24.64
-21.58
-15.69
-7.04
3.50
14.41
23.86
30.46
33.56
33.59
31.78
29.48
27.84
27.26
27.52
28.09
28.61
29.01
29.56
30.57
32.12
34.01
35.88
37.27
37.97
37.94
37.21
35.92
34.01
31.50
28.44
25.12
21.96
19.37
17.54
16.29
15.17
13.58
11.00
7.24
2.38
-2.98
-7.95
-11.57
-12.94
-11.71
-8.16
-3.11
2.49
8.07
13.71
20.00
27.44
35.95
44.53
51.51
55.32
55.02
50.64
43.01
33.28
22.59
11.86
1.91
-6.52
-12.79
-16.70
-18.59
-19.38
-20.25
-22.22
-25.66
-30.20
-34.71
-37.63
-37.61
-33.82
-26.35
-16.18
-4.81
6.06
15.07
21.46
25.23
27.07
28.06
29.37
31.82
35.74
40.81
46.37
51.60
55.85
58.66
59.85
59.32
57.01
52.96
47.30
40.31
32.41
24.11
15.96
8.47
2.08
-2.85
-6.16
-7.95
-8.60
-8.68
-8.74
-9.12
-9.79
-10.37
-10.41
-9.64
-8.24
-6.83
-6.14
-6.68
-8.46
-11.08
-13.95
-16.74
-19.55
-22.85
-27.16
-32.67
-38.99
-45.16
-49.91
-51.98
-50.50
-45.26
-36.85
-26.65
-16.48
-8.13
-2.87
-1.23
-2.87
-7.01
-12.82
-19.64
-27.14
-34.93
-42.39
-48.69
-52.92
-54.57
-53.84
-51.68
-49.28
-47.63
-47.08
-47.13
-46.98
-45.78
-43.21
-39.49
-35.23
-31.09
-27.55
-24.78
-22.75
-21.15
-19.66
-17.68
-14.67
-10.03
-3.45
4.85
14.20
23.30
30.83
35.90
38.52
39.70
40.96
43.39
46.88
49.91
50.10
45.32
34.89
20.04
3.49
-11.30
-21.67
-26.13
-24.73
-18.63
-9.62
0.33
9.38
16.29
20.75
23.49
25.69
28.60
32.75
38.07
44.36
51.75
61.11
73.59
89.74
108.71
128.21
145.22
157.26
163.45
164.66
162.82
159.85
156.46
151.96
144.67
132.74
115.28
92.70
66.80
40.12
15.07
-6.79
-25.07
-40.41
-54.01
-66.90
-79.43
-91.23
-101.55
-109.75
-115.71
-119.68
-122.14
-123.27
-122.77
-120.07
-114.72
-106.90
-97.60
-88.32
-80.46
-74.77
-70.92
-67.58
-63.03
-55.74
-44.99
-31.21
-15.73
-0.27
13.75
25.43
34.35
40.15
42.24
39.91
32.92
21.98
8.88
-4.03
-14.68
-21.95
-25.82
-26.89
-25.78
-22.79
-18.00
-11.69
-4.64
1.99
7.13
10.23
11.46
11.52
11.08
10.49
9.55
7.77
4.85
1.06
-2.64
-4.72
-3.75
0.94
8.79
18.02
26.31
31.53
32.52
29.33
22.91
14.57
5.40
-3.95
-13.13
-21.77
-29.28
-34.96
-38.23
-38.99
-37.71
-35.29
-32.70
-30.65
-29.39
-28.76
-28.47
-28.39
-28.75
-30.12
-33.22
-38.44
-45.57
-53.54
-60.61
-64.87
-64.93
-60.62
-52.95
-43.60
-34.09
-25.05
-16.14
-6.63
3.80
14.55
24.14
30.83
33.49
32.02
27.25
20.42
12.66
4.76
-2.77
-9.52
-15.20
-19.68
-23.16
-26.07
-28.88
-31.73
-34.31
-36.04
-36.35
-35.15
-32.91
-30.54
-28.98
-28.77
-30.00
-32.29
-35.24
-38.58
-42.22
-46.02
-49.48
-51.67
-51.38
-47.66
-40.40
-30.49
-19.62
-9.70
-2.16
2.49
4.58
4.97
4.49
3.62
2.56
1.37
0.20
-0.59
-0.58
0.51
2.71
5.77
9.27
12.75
15.79
17.99
19.00
18.58
16.68
13.57
9.76
5.95
2.75
0.41
-1.18
-2.47
-4.00
-6.15
-8.98
-12.12
-14.91
-16.54
-16.28
-13.69
-8.76
-2.00
5.70
13.24
19.80
25.02
29.11
32.65
36.26
40.14
43.94
46.89
48.05
46.81
43.12
37.53
31.05
24.74
19.26
14.64
10.21
5.00
-1.55
-9.17
-16.60
-22.15
-24.53
-23.47
-19.82
-15.02
-10.19
-5.63
-0.84
5.00
12.42
21.50
32.11
44.23
57.92
72.80
87.59
100.06
107.64
108.68
103.40
94.11
84.25
76.82
72.84
70.93
68.01
61.09
49.00
33.11
16.71
3.44
-4.49
-7.03
-6.04
-4.01
-2.65
-2.32
-2.42
-2.14
-1.44
-1.03
-1.94
-4.80
-9.49
-15.19
-20.89
-25.93
-30.18
-34.06
-38.09
-42.48
-46.83
-50.13
-51.13
-48.86
-43.21
-35.11
-26.33
-18.90
-14.48
-13.77
-16.33
-20.83
-25.65
-29.42
-31.54
-32.22
-32.27
-32.61
-33.74
-35.41
-36.79
-36.65
-34.04
-28.48
-20.21
-9.95
1.38
12.75
23.16
31.51
36.83
38.55
36.84
32.79
28.28
25.30
25.37
29.01
35.61
43.79
51.96
58.87
63.97
67.54
70.44
73.83
78.70
85.55
93.95
102.52
109.12
111.43
107.57
96.64
78.96
55.99
29.98
3.51
-20.88
-41.09
-55.60
-63.66
-65.35
-61.62
-54.27
-45.56
-37.75
-32.46
-30.30
-30.66
-32.11
-33.05
-32.44
-30.20
-27.17
-24.68
-23.87
-25.29
-28.74
-33.42
-38.37
-42.71
-45.95
-47.96
-49.01
-49.59
-50.36
-51.98
-54.99
-59.65
-65.88
-73.43
-81.95
-91.28
-101.31
-111.87
-122.43
-132.09
-139.88
-145.13
-147.97
-149.19
-149.84
-150.39
-150.30
-148.18
-142.50
-132.52
-118.80
-102.92
-86.46
-69.92
-52.40
-31.97
-6.70
24.45
61.50
103.99
151.46
203.62
259.59
316.96
371.51
417.77
450.61
466.74
465.64
448.92
419.30
379.44
331.45
277.26
219.22
160.28
103.66
51.95
6.51
-32.60
-66.07
-94.49
-117.77
-135.05
-145.28
-147.96
-143.84
-135.00
-124.39
-114.91
-108.62
-106.31
-107.73
-112.20
-118.95
-127.33
-136.52
-145.21
-151.53
-153.62
-150.19
-141.09
-127.38
-110.81
-93.26
-76.23
-60.69
-47.22
-36.23
-27.95
-22.41
-19.32
-18.03
-17.70
-17.54
-16.99
-15.89
-14.50
-13.31
-12.82
-13.26
-14.37
-15.54
-16.00
-15.32
-13.60
-11.53
-10.10
-10.16
-12.06
-15.44
-19.48
-23.15
-25.61
-26.42
-25.53
-23.21
-19.92
-16.19
-12.60
-9.74
-8.14
-8.08
-9.48
-11.71
-13.73
-14.53
-13.66
-11.55
-9.48
-8.88
-10.42
-13.55
-16.62
-17.76
-16.01
-11.88
-7.15
-3.93
-3.55
-6.08
-10.44
-15.24
-19.44
-22.79
-25.47
-27.66
-29.08
-28.94
-26.41
-21.08
-13.33
-4.25
4.69
12.30
17.92
21.64
23.87
25.04
25.17
23.98
21.19
16.86
11.69
6.71
2.84
0.49
-0.73
-1.73
-3.36
-5.96
-9.11
-11.89
-13.43
-13.54
-12.90
-12.79
-14.48
-18.52
-24.51
-31.15
-36.78
-39.84
-39.36
-35.12
-27.60
-17.84
-7.18
2.95
11.34
17.17
20.10
20.20
17.81
13.48
7.87
1.83
-3.76
-7.97
-10.15
-10.07
-7.96
-4.46
-0.39
3.49
6.61
8.63
9.49
9.25
8.05
5.97
3.02
-0.92
-5.97
-12.17
-19.27
-26.74
-33.67
-39.07
-41.97
-41.78
-38.40
-32.32
-24.45
-15.94
-7.84
-0.84
4.82
9.37
13.27
16.95
20.69
24.52
28.45
32.54
36.90
41.55
46.14
49.93
52.02
51.85
49.52
45.83
41.83
38.34
35.57
33.23
30.93
28.53
26.18
24.10
22.33
20.47
17.99
14.45
9.78
4.32
-1.56
-7.66
-14.09
-21.01
-28.32
-35.33
-40.90
-43.72
-42.86
-38.30
-31.07
-22.94
-15.77
-10.76
-8.00
-6.64
-5.33
-3.00
0.64
5.06
9.26
12.26
13.55
13.23
11.88
10.27
9.09
8.71
9.19
10.32
11.72
12.94
13.51
13.05
11.24
8.00
3.64
-0.90
-4.20
-4.62
-0.97
6.97
18.22
30.87
42.68
51.92
57.82
60.61
61.20
60.63
59.63
58.52
57.27
55.69
53.66
51.12
48.13
44.79
41.22
37.57
33.96
30.51
27.28
24.25
21.32
18.33
15.19
11.90
8.58
5.50
2.96
1.24
0.51
0.80
1.97
3.77
5.80
7.60
8.68
8.65
7.30
4.76
1.46
-2.02
-5.09
-7.43
-9.05
-10.32
-11.74
-13.76
-16.60
-20.10
-23.81
-27.04
-29.00
-28.92
-26.20
-20.75
-13.06
-4.28
4.15
10.83
14.98
16.59
16.34
15.24
14.10
13.28
12.55
11.43
9.48
6.73
3.78
1.68
1.54
4.10
9.43
16.88
25.30
33.47
40.37
45.36
48.01
48.00
45.01
38.86
29.77
18.59
6.69
-4.42
-13.53
-20.16
-24.61
-27.77
-30.66
-34.02
-38.10
-42.76
-47.71
-52.74
-57.83
-63.02
-68.31
-73.48
-78.12
-81.66
-83.67
-84.04
-83.00
-81.25
-79.71
-79.37
-81.01
-85.04
-91.33
-99.38
-108.30
-117.13
-125.04
-131.40
-135.96
-138.74
-139.87
-139.38
-136.92
-131.65
-122.32
-107.51
-85.95
-56.98
-20.88
20.84
65.47
109.45
149.08
181.32
204.39
218.08
223.39
222.00
215.61
205.61
193.01
178.57
162.94
146.59
129.84
112.70
95.07
76.89
58.38
40.29
23.87
10.57
1.58
-2.67
-2.86
-0.55
2.26
3.90
3.61
1.64
-1.19
-3.95
-6.23
-8.13
-10.05
-12.23
-14.39
-15.84
-15.77
-13.72
-9.92
-5.25
-0.90
2.24
3.86
4.42
4.86
6.14
8.90
13.39
19.54
27.20
36.14
45.98
56.06
65.48
73.33
78.96
82.07
82.54
80.18
74.62
65.40
52.44
36.38
18.70
1.43
-13.44
-24.60
-31.72
-35.38
-36.54
-35.95
-33.82
-29.77
-23.28
-14.17
-3.01
8.93
20.07
29.07
35.21
38.52
39.55
38.98
37.35
34.99
32.06
28.74
25.20
21.57
17.83
13.85
9.45
4.54
-0.72
-5.96
-10.67
-14.23
-16.12
-16.00
-13.87
-10.06
-5.21
-0.07
4.65
8.45
11.12
12.73
13.60
14.23
15.13
16.75
19.23
22.21
24.89
26.20
25.19
21.49
15.41
7.88
-0.03
-7.46
-14.04
-19.88
-25.31
-30.51
-35.37
-39.36
-41.78
-41.83
-38.97
-32.96
-24.03
-12.82
-0.34
12.28
23.80
32.98
38.62
39.67
35.47
26.16
12.78
-2.73
-17.97
-30.74
-39.72
-44.78
-46.92
-47.69
-48.50
-49.99
-51.88
-53.13
-52.47
-49.05
-42.81
-34.59
-25.82
-17.93
-11.85
-7.77
-5.27
-3.78
-2.91
-2.52
-2.62
-3.08
-3.48
-3.28
-2.14
-0.17
2.12
4.08
5.32
5.93
6.33
7.05
8.32
10.04
11.79
13.15
13.92
14.14
14.05
13.91
13.91
14.09
14.34
14.26
13.21
10.41
5.28
-2.24
-11.32
-20.44
-27.80
-31.99
-32.54
-30.03
-25.76
-21.09
-16.94
-13.56
-10.65
-7.66
-4.16
-0.03
4.54
9.09
13.07
15.99
17.63
18.07
17.67
16.81
15.66
14.08
11.82
8.76
5.31
2.29
0.64
0.90
2.93
5.91
8.83
11.02
12.33
13.16
13.81
14.31
14.20
12.93
10.21
6.22
1.50
-3.37
-8.20
-13.25
-18.91
-25.32
-31.97
-37.74
-41.32
-41.82
-39.21
-34.32
-28.48
-22.89
-18.10
-13.98
-10.00
-5.75
-1.24
3.07
6.62
9.09
10.54
11.27
11.48
11.05
9.64
6.89
2.82
-1.92
-6.32
-9.34
-10.39
-9.64
-8.04
-7.02
-8.01
-11.99
-18.96
-27.98
-37.25
-44.69
-48.55
-48.05
-43.56
-36.44
-28.56
-21.49
-16.03
-11.94
-8.07
-3.02
4.27
14.01
25.45
37.06
47.17
54.40
58.07
58.29
55.80
51.73
47.35
43.81
41.86
41.54
41.90
41.22
37.49
29.26
16.39
0.19
-16.91
-32.30
-44.06
-51.44
-54.83
-55.18
-53.59
-50.97
-48.01
-45.36
-43.57
-42.94
-43.30
-44.00
-44.10
-42.76
-39.58
-34.70
-28.61
-21.99
-15.39
-9.22
-3.75
0.85
4.50
7.31
9.49
11.31
12.90
14.14
14.76
14.52
13.40
11.83
10.46
9.85
10.16
11.01
11.69
11.59
10.66
9.51
9.15
10.44
13.54
17.77
21.90
24.78
25.81
24.99
22.66
19.06
14.14
7.78
0.10
-8.27
-16.27
-22.81
-27.24
-29.53
-30.19
-29.83
-28.86
-27.44
-25.58
-23.46
-21.43
-20.03
-19.74
-20.74
-22.91
-25.82
-28.90
-31.65
-33.75
-35.16
-36.12
-36.95
-37.93
-39.06
-40.11
-40.67
-40.33
-38.87
-36.30
-32.80
-28.69
-24.32
-20.09
-16.32
-13.25
-10.89
-9.02
-7.32
-5.49
-3.41
-1.16
1.01
2.83
4.14
4.88
5.15
5.08
4.86
4.65
4.51
4.46
4.29
3.78
2.66
0.86
-1.46
-3.85
-5.79
-6.94
-7.32
-7.47
-8.17
-10.15
-13.55
-17.71
-21.28
-22.78
-21.20
-16.54
-9.81
-2.57
3.70
8.09
10.40
10.86
9.79
7.44
4.08
0.16
-3.52
-6.00
-6.57
-5.00
-1.76
2.18
5.80
8.30
9.37
9.14
7.99
6.36
4.64
3.03
1.57
0.18
-1.21
-2.63
-4.00
-5.29
-6.55
-8.00
-9.94
-12.59
-15.77
-18.94
-21.20
-21.68
-19.79
-15.58
-9.55
-2.54
4.62
11.30
17.09
21.76
25.10
26.92
27.04
25.50
22.53
18.63
14.51
10.98
8.67
7.92
8.63
10.25
12.06
13.36
13.76
13.23
12.02
10.47
8.83
7.20
5.60
3.96
2.19
0.15
-2.31
-5.36
-8.94
-12.74
-16.10
-18.22
-18.41
-16.40
-12.45
-7.24
-1.70
3.40
7.55
10.56
12.48
13.40
13.43
12.61
11.04
8.98
6.81
5.01
3.96
3.80
4.33
5.10
5.57
5.30
4.10
2.09
-0.44
-3.09
-5.52
-7.47
-8.76
-9.40
-9.59
-9.77
-10.43
-11.90
-14.17
-16.61
-18.17
-17.71
-14.46
-8.38
-0.18
8.94
17.80
25.53
31.77
36.43
39.45
40.61
39.54
36.06
30.41
23.43
16.28
10.11
5.57
2.69
0.91
-0.49
-2.04
-3.84
-5.62
-7.01
-7.81
-8.17
-8.52
-9.40
-11.22
-14.10
-17.85
-21.95
-25.66
-28.02
-28.16
-25.42
-19.70
-11.55
-2.12
7.19
15.13
21.05
24.98
27.50
29.30
30.82
32.05
32.67
32.28
30.75
28.33
25.60
23.17
21.47
20.54
20.10
19.72
19.01
17.81
16.15
14.19
12.15
10.19
8.27
6.28
4.00
1.17
-2.37
-6.70
-11.66
-16.86
-21.63
-25.13
-26.56
-25.44
-21.84
-16.36
-9.99
-3.81
1.36
5.14
7.55
8.87
9.39
9.36
8.93
8.22
7.38
6.60
6.11
6.08
6.59
7.57
8.81
10.00
10.81
10.98
10.51
9.53
8.37
7.28
6.37
5.53
4.49
2.92
0.59
-2.50
-6.14
-9.93
-13.33
-15.74
-16.58
-15.38
-11.94
-6.46
0.40
7.68
14.34
19.62
23.15
25.02
25.58
25.25
24.29
22.90
21.18
19.33
17.67
16.58
16.38
17.21
18.96
21.28
23.71
25.83
27.30
28.04
28.15
27.89
27.54
27.26
27.08
26.85
26.35
25.39
24.00
22.43
21.20
21.02
22.63
26.66
33.43
42.79
54.22
66.83
79.70
92.17
104.12
116.06
129.00
144.04
161.72
181.62
202.19
221.07
235.77
244.45
246.43
242.23
233.23
221.17
207.57
193.59
179.93
167.00
155.05
144.09
133.93
124.09
113.90
102.57
89.39
73.83
55.79
35.62
14.14
-7.58
-28.44
-47.51
-64.10
-77.75
-88.18
-95.24
-99.00
-99.82
-98.35
-95.38
-91.67
-87.81
-84.23
-81.15
-78.77
-77.05
-75.72
-74.22
-71.72
-67.52
-61.32
-53.48
-44.94
-37.01
-30.99
-28.00
-28.73
-33.30
-41.12
-50.89
-60.76
-68.84
-73.75
-75.03
-73.21
-69.38
-64.72
-60.03
-55.73
-51.97
-48.95
-47.10
-47.08
-49.62
-55.23
-63.90
-74.87
-86.57
-96.88
-103.84
-106.42
-105.08
-101.64
-98.26
-96.09
-94.49
-91.26
-84.13
-72.47
-58.24
-45.38
-37.97
-38.12
-44.83
-54.58
-63.02
-67.09
-66.26
-62.30
-57.96
-55.42
-55.31
-56.72
-58.14
-58.46
-57.57
-56.38
-56.15
-57.60
-60.45
-63.47
-64.99
-63.77
-59.50
-52.96
-45.60
-39.01
-34.36
-32.10
-31.90
-32.86
-33.84
-33.75
-31.90
-28.13
-22.85
-16.83
-10.86
-5.61
-1.42
1.60
3.49
4.30
4.03
2.70
0.43
-2.47
-5.31
-7.01
-6.31
-2.07
6.25
18.24
32.56
47.27
60.40
70.43
76.63
78.98
77.98
74.46
69.39
63.85
58.82
55.06
52.79
51.63
50.65
48.71
44.81
38.35
29.33
18.26
6.04
-6.30
-17.80
-27.69
-35.54
-41.17
-44.66
-46.15
-45.77
-43.58
-39.69
-34.40
-28.25
-22.03
-16.55
-12.43
-9.94
-8.95
-9.02
-9.59
-10.09
-10.06
-9.24
-7.66
-5.54
-3.20
-0.90
1.26
3.46
5.96
8.91
12.07
14.87
16.58
16.53
14.46
10.51
5.14
-1.06
-7.49
-13.66
-19.11
-23.50
-26.63
-28.50
-29.43
-29.91
-30.42
-31.14
-31.82
-31.74
-30.06
-26.17
-20.00
-12.13
-3.68
4.12
10.22
14.09
15.72
15.55
14.20
12.32
10.37
8.64
7.25
6.25
5.65
5.44
5.58
5.94
6.41
6.88
7.41
8.16
9.21
10.45
11.43
11.48
10.00
6.74
2.03
-3.36
-8.51
-12.68
-15.61
-17.49
-18.81
-20.11
-21.67
-23.43
-25.07
-25.96
-25.55
-23.41
-19.51
-14.21
-8.22
-2.43
2.41
5.81
7.73
8.42
8.31
7.74
6.94
6.00
4.97
3.97
3.15
2.67
2.62
2.95
3.52
4.23
4.98
5.75
6.52
7.16
7.43
7.05
5.87
4.00
1.72
-0.52
-2.45
-3.94
-5.17
-6.39
-7.87
-9.72
-11.88
-14.06
-15.80
-16.51
-15.69
-13.04
-8.73
-3.35
2.22
7.07
10.65
12.84
13.92
14.35
14.40
14.17
13.61
12.67
11.43
10.15
9.10
8.45
8.17
8.13
8.08
7.86
7.37
6.62
5.65
4.57
3.44
2.33
1.26
0.19
-0.93
-2.18
-3.63
-5.31
-7.26
-9.50
-12.00
-14.67
-17.20
-19.11
-19.86
-18.94
-16.16
-11.77
-6.41
-0.91
3.91
7.52
9.75
10.76
10.86
10.39
9.60
8.71
7.91
7.38
7.23
7.46
7.90
8.29
8.44
8.29
7.97
7.64
7.41
7.22
6.90
6.23
5.05
3.41
1.43
-0.65
-2.59
-4.18
-5.29
-5.90
-6.19
-6.49
-7.21
-8.66
-10.87
-13.53
-16.04
-17.74
-18.06
-16.75
-13.97
-10.15
-5.88
-1.68
2.04
5.13
7.56
9.34
10.50
11.03
11.00
10.52
9.84
9.23
8.86
8.81
9.02
9.32
9.58
9.78
9.97
10.18
10.35
10.37
10.12
9.55
8.73
7.70
6.54
5.20
3.61
1.73
-0.33
-2.35
-4.05
-5.23
-5.90
-6.25
-6.60
-7.26
-8.38
-10.01
-11.96
-14.01
-15.87
-17.22
-17.76
-17.22
-15.43
-12.45
-8.59
-4.38
-0.45
2.69
4.78
5.84
6.06
5.72
5.07
4.30
3.52
2.80
2.26
1.99
2.03
2.41
3.12
4.09
5.21
6.36
7.35
8.02
8.27
8.00
7.19
5.89
4.15
2.05
-0.25
-2.57
-4.66
-6.33
-7.53
-8.36
-9.19
-10.44
-12.44
-15.18
-18.22
-20.80
-22.03
-21.29
-18.45
-13.93
-8.57
-3.31
1.11
4.31
6.28
7.29
7.65
7.64
7.45
7.24
7.08
7.03
7.05
7.10
7.13
7.12
7.14
7.25
7.49
7.80
8.02
7.94
7.44
6.57
5.49
4.36
3.28
2.16
0.87
-0.68
-2.43
-4.23
-5.85
-7.17
-8.20
-9.09
-9.97
-11.00
-12.24
-13.69
-15.39
-17.29
-19.21
-20.75
-21.44
-20.81
-18.62
-15.00
-10.38
-5.39
-0.71
3.18
6.02
7.74
8.54
8.66
8.37
7.90
7.42
7.05
6.84
6.83
7.03
7.45
8.05
8.77
9.55
10.38
11.25
12.10
12.76
12.92
12.31
10.72
8.19
5.01
1.67
-1.39
-3.82
-5.50
-6.49
-6.97
-7.13
-7.19
-7.30
-7.58
-8.08
-8.79
-9.69
-10.82
-12.27
-14.18
-16.55
-19.11
-21.36
-22.68
-22.55
-20.76
-17.49
-13.24
-8.62
-4.15
-0.19
3.03
5.42
6.88
7.41
7.13
6.27
5.22
4.38
4.06
4.42
5.35
6.60
7.80
8.75
9.38
9.81
10.23
10.73
11.28
11.71
11.83
11.49
10.73
9.68
8.47
7.21
5.96
4.73
3.58
2.57
1.73
1.03
0.32
-0.52
-1.60
-2.90
-4.35
-5.84
-7.37
-9.02
-11.02
-13.50
-16.46
-19.58
-22.34
-24.10
-24.31
-22.71
-19.42
-14.86
-9.68
-4.49
0.14
3.82
6.36
7.73
8.07
7.60
6.61
5.38
4.07
2.81
1.73
0.98
0.73
1.08
2.03
3.40
4.92
6.37
7.60
8.56
9.26
9.68
9.81
9.60
9.13
8.50
7.85
7.26
6.65
5.94
4.99
3.76
2.25
0.56
-1.23
-3.05
-4.85
-6.63
-8.40
-10.25
-12.42
-15.18
-18.76
-23.10
-27.72
-31.79
-34.35
-34.59
-32.19
-27.43
-21.01
-13.85
-6.81
-0.50
4.70
8.55
10.94
11.90
11.67
10.69
9.52
8.68
8.46
8.85
9.66
10.62
11.53
12.31
13.00
13.63
14.21
14.69
15.01
15.12
14.96
14.51
13.72
12.58
11.16
9.61
8.12
6.86
5.91
5.18
4.46
3.53
2.21
0.47
-1.60
-3.80
-5.97
-8.02
-9.97
-11.98
-14.18
-16.74
-19.70
-22.93
-26.06
-28.45
-29.39
-28.24
-24.78
-19.26
-12.48
-5.42
1.02
6.27
10.16
12.80
14.37
15.02
14.87
14.08
12.95
11.92
11.41
11.68
12.68
14.17
15.76
17.17
18.25
19.06
19.76
20.42
21.02
21.40
21.40
20.87
19.81
18.35
16.61
14.75
12.81
10.79
8.66
6.38
3.98
1.56
-0.78
-2.87
-4.62
-6.03
-7.17
-8.24
-9.47
-11.11
-13.29
-16.02
-19.08
-21.98
-24.09
-24.69
-23.31
-19.84
-14.64
-8.43
-2.10
3.55
8.03
11.15
12.95
13.64
13.46
12.64
11.46
10.19
9.11
8.41
8.18
8.43
9.06
9.90
10.82
11.64
12.24
12.52
12.44
11.99
11.22
10.13
8.69
6.85
4.61
2.00
-0.78
-3.50
-5.94
-8.05
-9.97
-12.06
-14.67
-17.96
-21.70
-25.26
-27.80
-28.48
-26.83
-22.81
-16.88
-9.81
-2.48
4.29
9.92
14.10
16.79
18.15
18.48
18.08
17.24
16.20
15.20
14.48
14.25
14.62
15.54
16.72
17.78
18.33
18.15
17.25
15.88
14.38
13.01
11.81
10.62
9.16
7.13
4.50
1.46
-1.60
-4.20
-6.04
-7.09
-7.65
-8.18
-9.27
-11.29
-14.36
-18.32
-22.60
-26.41
-28.77
-28.88
-26.29
-21.15
-14.20
-6.57
0.57
6.35
10.41
12.90
14.28
15.05
15.54
15.90
16.15
16.35
16.65
17.18
18.01
19.02
19.91
20.43
20.43
20.06
19.63
19.43
19.59
19.93
20.11
19.77
18.71
16.95
14.74
12.39
10.16
8.23
6.59
5.11
3.58
1.82
-0.25
-2.57
-4.93
-7.10
-8.93
-10.41
-11.71
-13.05
-14.67
-16.76
-19.43
-22.63
-26.08
-29.19
-31.15
-31.16
-28.69
-23.79
-17.09
-9.64
-2.53
3.45
7.93
10.93
12.72
13.61
13.83
13.58
13.04
12.46
12.06
12.03
12.42
13.16
14.08
14.98
15.66
15.99
15.89
15.38
14.50
13.42
12.26
11.14
10.05
8.94
7.66
6.11
4.34
2.53
0.92
-0.33
-1.22
-1.93
-2.72
-3.87
-5.54
-7.79
-10.60
-13.86
-17.35
-20.59
-22.87
-23.39
-21.57
-17.32
-11.13
-3.99
2.90
8.60
12.64
14.99
15.98
16.03
15.49
14.59
13.48
12.36
11.43
10.90
10.86
11.32
12.09
12.89
13.46
13.63
13.43
13.02
12.67
12.55
12.71
13.00
13.09
12.60
11.24
8.98
6.04
2.89
0.10
-1.91
-2.97
-3.21
-2.93
-2.52
-2.29
-2.45
-3.17
-4.51
-6.35
-8.22
-9.14
-7.81
-2.97
5.97
18.68
33.79
49.49
64.14
76.82
87.41
96.16
103.17
107.94
109.58
107.23
100.55
89.96
76.35
60.76
44.12
27.30
11.26
-2.84
-13.88
-21.20
-24.88
-25.79
-25.12
-23.92
-22.63
-21.21
-19.45
-17.38
-15.40
-14.09
-13.82
-14.55
-15.81
-17.00
-17.74
-18.01
-18.19
-18.84
-20.48
-23.47
-27.87
-33.44
-39.57
-45.35
-49.54
-50.89
-48.54
-42.37
-33.23
-22.76
-12.79
-4.79
0.68
3.93
5.79
7.02
7.89
8.22
7.65
6.13
4.09
2.24
1.13
0.78
0.64
-0.08
-1.91
-4.80
-8.10
-10.98
-12.80
-13.40
-13.00
-12.02
-10.82
-9.61
-8.54
-7.79
-7.56
-8.06
-9.37
-11.41
-13.95
-16.74
-19.55
-22.24
-24.74
-27.02
-29.09
-30.95
-32.67
-34.38
-36.20
-38.18
-40.30
-42.36
-44.10
-45.21
-45.34
-44.27
-41.89
-38.34
-33.91
-29.00
-24.06
-19.40
-15.21
-11.56
-8.51
-6.17
-4.75
-4.47
-5.41
-7.40
-9.95
-12.37
-13.84
-13.64
-11.24
-6.47
0.40
8.62
17.12
24.80
30.80
34.76
36.75
37.14
36.35
34.61
32.01
28.61
24.62
20.43
16.57
13.44
11.15
9.53
8.16
6.63
4.62
2.01
-1.14
-4.60
-8.06
-11.07
-13.13
-13.81
-12.83
-10.28
-6.51
-2.17
2.05
5.56
8.00
9.33
9.69
9.42
8.96
8.66
8.78
9.40
10.42
11.59
12.69
13.49
13.90
13.82
13.28
12.27
10.91
9.35
7.79
6.36
5.14
4.06
3.09
2.22
1.52
1.07
0.88
0.77
0.45
-0.29
-1.45
-2.72
-3.54
-3.39
-1.96
0.62
3.81
6.80
8.66
8.62
6.27
1.71
-4.42
-11.04
-16.91
-21.07
-23.01
-22.86
-21.24
-19.00
-16.88
-15.35
-14.54
-14.32
-14.47
-14.78
-15.13
-15.52
-16.06
-16.80
-17.77
-18.77
-19.44
-19.36
-18.20
-15.86
-12.57
-8.81
-5.18
-2.18
-0.17
0.74
0.63
-0.24
-1.54
-2.94
-4.15
-5.06
-5.73
-6.33
-7.08
-8.15
-9.59
-11.26
-12.83
-13.81
-13.63
-11.82
-8.20
-3.00
3.13
9.28
14.49
18.07
19.74
19.75
18.71
17.41
16.45
16.07
16.04
15.88
15.02
13.10
10.12
6.39
2.44
-1.29
-4.47
-7.03
-9.02
-10.61
-11.92
-13.05
-13.95
-14.55
-14.65
-14.19
-13.14
-11.71
-10.16
-8.81
-7.93
-7.65
-8.10
-9.41
-11.68
-14.82
-18.34
-21.26
-22.34
-20.44
-15.03
-6.43
4.22
15.42
25.70
33.99
39.69
42.51
42.47
39.82
35.28
30.06
25.63
23.20
23.24
25.25
28.05
30.29
31.16
30.68
29.73
29.50
30.91
34.19
38.64
42.92
45.37
44.56
39.75
31.31
20.56
9.51
0.19
-6.02
-8.86
-9.12
-8.32
-8.17
-9.97
-14.33
-21.02
-29.04
-36.91
-43.16
-46.67
-47.02
-44.59
-40.35
-35.50
-31.14
-28.12
-26.86
-27.39
-29.32
-31.82
-33.88
-34.50
-33.16
-30.01
-25.96
-22.30
-20.14
-19.90
-21.07
-22.31
-22.08
-19.32
-13.80
-6.27
1.99
9.82
16.48
21.91
26.39
30.27
33.76
36.89
39.53
41.46
42.34
41.77
39.42
35.28
29.82
23.98
18.82
15.02
12.67
11.18
9.63
7.25
3.76
-0.65
-5.54
-10.67
-16.00
-21.66
-27.55
-33.34
-38.16
-41.09
-41.50
-39.22
-35.01
-30.10
-25.91
-23.36
-22.31
-21.42
-18.55
-11.64
0.24
16.23
33.80
49.60
60.59
64.99
62.74
55.09
44.48
33.97
26.76
25.33
30.57
41.04
53.44
63.87
69.76
70.90
69.41
67.99
68.50
70.68
72.45
71.43
66.02
56.40
44.05
31.05
19.23
9.66
2.67
-2.10
-5.53
-8.72
-12.71
-18.08
-24.90
-32.61
-40.30
-47.08
-52.24
-55.42
-56.58
-56.07
-54.55
-52.89
-51.97
-52.50
-54.72
-58.45
-62.97
-67.41
-70.74
-72.10
-71.02
-67.39
-61.75
-54.90
-47.79
-41.22
-35.66
-31.16
-27.52
-24.45
-21.72
-19.30
-17.30
-15.85
-15.09
-14.95
-15.22
-15.56
-15.65
-15.17
-14.01
-12.21
-9.95
-7.54
-5.34
-3.66
-2.74
-2.64
-3.24
-4.28
-5.41
-6.31
-6.78
-6.83
-6.73
-6.83
-7.47
-8.74
-10.43
-12.10
-13.24
-13.54
-12.88
-11.38
-9.24
-6.65
-3.82
-0.96
1.68
3.85
5.37
6.17
6.34
6.05
5.48
4.91
4.70
5.32
7.29
10.84
15.80
21.50
27.06
31.56
34.45
35.65
35.36
33.97
31.79
29.05
25.95
22.69
19.47
16.36
13.25
9.89
6.04
1.66
-2.99
-7.40
-10.99
-13.32
-14.15
-13.52
-11.68
-8.92
-5.50
-1.57
2.80
7.54
12.51
17.39
21.76
25.07
26.92
27.08
25.51
22.44
18.11
12.84
6.98
1.01
-4.52
-8.98
-11.95
-13.37
-13.60
-13.28
-13.16
-13.63
-14.68
-15.89
-16.61
-16.55
-15.76
-14.74
-14.16
-14.45
-15.61
-17.16
-18.37
-18.62
-17.61
-15.41
-12.34
-8.81
-5.10
-1.32
2.38
5.90
8.95
11.19
12.35
12.29
11.16
9.31
7.27
5.54
4.50
4.27
4.56
4.91
4.69
3.38
0.81
-2.89
-7.29
-11.84
-15.95
-19.13
-21.03
-21.52
-20.66
-18.73
-16.11
-13.33
-10.90
-9.30
-8.93
-9.94
-12.18
-15.13
-17.98
-19.84
-20.05
-18.30
-14.70
-9.62
-3.61
2.66
8.38
12.65
14.72
14.57
13.25
12.93
16.43
26.19
43.49
67.85
97.24
128.43
157.74
181.40
196.20
199.84
191.61
172.60
145.61
114.35
82.50
52.85
27.01
5.68
-11.16
-23.94
-33.74
-42.15
-50.99
-61.53
-73.60
-85.14
-92.63
-92.23
-81.17
-58.50
-25.21
16.50
64.06
114.75
165.57
212.87
252.40
280.04
292.83
289.78
271.93
241.54
201.05
152.51
98.04
40.54
-15.50
-64.30
-100.30
-119.86
-122.66
-111.52
-91.29
-66.96
-42.24
-19.21
1.09
17.80
29.58
34.76
32.07
21.49
4.68
-15.30
-34.76
-50.45
-60.34
-64.07
-62.71
-58.24
-52.77
-47.94
-44.55
-42.58
-41.52
-40.94
-40.63
-40.76
-41.57
-43.10
-45.03
-46.74
-47.84
-48.23
-48.31
-48.55
-49.18
-49.92
-50.20
-49.49
-47.76
-45.55
-43.73
-42.89
-43.01
-43.23
-42.19
-38.85
-32.89
-25.24
-17.86
-13.14
-13.17
-19.11
-30.84
-47.25
-66.47
-86.59
-105.85
-123.01
-137.11
-147.47
-153.70
-155.57
-153.52
-148.44
-141.70
-134.76
-128.69
-123.91
-120.25
-117.14
-114.02
-110.45
-106.33
-101.61
-96.21
-89.89
-82.29
-73.34
-63.26
-52.69
-42.37
-32.81
-24.06
-15.81
-7.66
0.44
8.15
14.76
19.72
22.85
24.57
25.67
26.78
28.21
29.56
30.28
29.87
28.27
25.99
23.87
22.74
23.17
25.34
29.01
33.56
38.34
42.61
45.87
47.94
48.73
48.36
46.91
44.50
41.31
37.63
33.70
29.61
25.09
19.62
12.63
4.09
-5.29
-14.00
-20.34
-23.22
-22.61
-19.85
-16.80
-15.10
-15.32
-16.66
-17.26
-15.10
-8.96
0.87
12.34
21.98
26.23
22.50
10.34
-8.05
-28.64
-46.48
-57.27
-58.39
-49.55
-32.62
-11.21
10.23
27.30
36.44
35.56
24.61
5.57
-17.70
-40.42
-58.58
-70.05
-75.33
-76.59
-76.17
-75.09
-72.73
-67.65
-59.15
-48.12
-36.66
-26.49
-17.55
-7.44
7.46
30.02
60.65
96.44
132.26
162.64
183.95
195.66
200.42
202.78
206.99
215.00
225.30
233.42
233.83
222.23
197.42
161.84
120.62
79.85
44.67
18.17
0.88
-8.86
-14.19
-18.73
-25.41
-35.53
-48.39
-61.57
-71.96
-77.20
-76.68
-71.82
-65.25
-59.63
-56.39
-55.36
-55.26
-54.81
-53.62
-52.28
-51.79
-52.75
-55.03
-58.05
-61.25
-64.24
-66.64
-67.50
-65.27
-58.18
-45.28
-27.37
-7.18
11.37
24.62
30.42
28.77
21.45
10.96
-0.58
-11.97
-22.98
-33.60
-43.61
-52.11
-57.90
-59.92
-57.91
-52.62
-45.49
-37.88
-30.46
-22.90
-14.25
-3.82
7.93
19.01
26.17
26.00
16.16
-3.63
-31.13
-62.02
-90.79
-111.96
-121.17
-115.84
-95.55
-61.94
-18.36
30.60
79.75
124.09
159.56
183.61
195.24
194.70
182.99
161.54
132.19
97.43
60.62
25.77
-3.33
-24.11
-36.14
-41.14
-42.32
-42.99
-45.15
-48.58
-50.89
-48.60
-38.80
-20.95
2.40
26.25
45.20
55.72
57.57
53.48
47.40
42.48
39.84
38.76
38.00
37.07
36.60
37.73
40.95
45.40
49.13
50.26
48.18
43.96
39.86
37.98
38.95
41.54
43.04
40.61
32.55
18.99
1.61
-17.35
-36.10
-53.67
-69.65
-83.35
-93.21
-97.19
-93.60
-82.25
-65.05
-45.70
-28.55
-17.08
-12.88
-15.26
-21.92
-29.97
-36.96
-41.28
-42.26
-39.64
-33.30
-23.18
-9.62
6.16
21.84
34.40
41.06
40.47
33.31
22.11
10.12
-0.04
-7.35
-12.35
-16.30
-20.13
-23.71
-25.96
-25.56
-21.83
-15.26
-7.45
-0.68
2.66
0.63
-7.93
-22.96
-42.87
-64.79
-85.08
-100.48
-109.17
-111.26
-108.69
-104.16
-99.86
-96.41
-92.63
-86.27
-75.28
-59.12
-39.26
-18.64
-0.53
12.89
21.19
25.61
28.21
30.89
34.66
39.57
45.24
51.35
58.02
65.69
74.73
85.00
95.60
104.94
110.98
111.88
106.57
95.21
79.16
60.62
41.82
24.30
8.70
-5.18
-17.65
-28.73
-37.85
-44.12
-46.82
-45.81
-41.79
-36.04
-29.98
-24.70
-20.62
-17.39
-14.12
-9.85
-3.96
3.44
11.54
19.11
25.06
28.88
30.84
31.77
32.59
33.87
35.62
37.45
38.93
39.89
40.53
41.20
42.12
43.14
43.65
42.73
39.54
33.45
24.27
12.20
-2.30
-18.48
-35.39
-51.87
-66.72
-78.72
-86.89
-90.45
-88.93
-82.27
-70.86
-55.62
-37.93
-19.45
-1.89
13.07
23.88
29.03
27.22
17.89
1.76
-18.94
-40.86
-60.55
-75.58
-85.25
-90.45
-92.81
-93.60
-93.08
-90.56
-85.03
-75.94
-63.69
-49.53
-35.13
-21.98
-11.00
-2.45
3.87
8.22
10.73
11.42
10.38
8.18
5.99
5.41
7.84
13.99
23.48
34.95
46.41
55.88
61.98
64.21
63.01
59.41
54.70
49.89
45.52
41.59
37.95
34.55
31.62
29.53
28.39
27.73
26.51
23.59
18.25
10.61
1.59
-7.52
-15.55
-21.84
-26.28
-29.20
-31.13
-32.76
-34.89
-38.25
-43.37
-50.07
-57.36
-63.48
-66.51
-65.02
-58.63
-48.22
-35.50
-22.43
-10.45
-0.21
8.34
15.55
21.52
25.99
28.47
28.70
26.96
24.16
21.47
19.89
19.75
20.62
21.58
21.73
20.68
18.64
16.33
14.60
14.08
14.99
16.97
19.29
20.91
20.88
18.57
13.99
7.94
1.90
-2.43
-3.66
-1.23
4.44
12.12
20.19
27.18
32.13
34.80
35.63
35.47
35.26
35.62
36.62
37.82
38.44
37.77
35.39
31.47
26.50
21.15
15.98
11.38
7.55
4.62
2.63
1.54
1.15
1.10
0.95
0.29
-1.00
-2.79
-4.75
-6.54
-8.02
-9.34
-10.88
-12.95
-15.54
-18.16
-19.97
-20.07
-17.88
-13.48
-7.58
-1.26
4.35
8.50
10.98
12.09
12.50
12.85
13.49
14.40
15.22
15.52
14.92
13.33
10.92
7.95
4.70
1.28
-2.24
-5.76
-9.16
-12.22
-14.81
-16.90
-18.63
-20.16
-21.58
-22.85
-23.92
-24.84
-25.90
-27.53
-30.02
-33.18
-36.22
-37.96
-37.33
-33.88
-28.13
-21.28
-14.80
-9.79
-6.54
-4.65
-3.31
-1.83
0.05
2.12
3.96
5.24
5.87
6.11
6.33
6.73
7.29
7.75
7.79
7.16
5.79
3.80
1.48
-0.85
-2.92
-4.51
-5.58
-6.21
-6.63
-7.20
-8.32
-10.28
-13.12
-16.47
-19.56
-21.42
-21.19
-18.43
-13.40
-6.94
-0.28
5.46
9.68
12.33
13.79
14.57
14.93
14.82
13.98
12.21
9.60
6.55
3.60
1.22
-0.43
-1.56
-2.65
-4.34
-7.30
-11.96
-18.28
-25.29
-30.88
-32.08
-25.95
-10.92
12.14
39.78
66.83
88.09
99.91
100.93
91.75
74.02
49.78
21.23
-8.93
-37.42
-60.75
-76.19
-82.42
-79.74
-69.57
-53.78
-34.43
-13.65
6.17
22.75
34.31
40.13
40.42
36.08
28.18
17.95
6.94
-2.78
-9.01
-10.45
-7.50
-2.36
1.87
2.51
-1.46
-9.30
-19.09
-28.84
-37.20
-43.83
-49.16
-53.98
-58.99
-64.58
-70.39
-75.49
-78.64
-78.73
-75.56
-69.84
-62.95
-56.33
-50.80
-46.46
-42.99
-40.12
-37.96
-36.94
-37.58
-39.95
-43.61
-47.53
-50.45
-51.35
-49.58
-45.17
-38.53
-30.29
-20.94
-10.68
0.43
12.29
24.37
35.62
44.58
49.67
49.74
44.42
34.25
20.65
5.48
-9.30
-21.94
-31.13
-35.97
-36.22
-32.17
-24.65
-14.95
-4.37
5.96
15.52
24.42
33.41
43.48
55.05
67.54
79.01
86.99
89.55
86.44
79.50
71.82
66.21
63.71
63.11
61.82
57.41
49.17
38.37
27.40
18.31
11.60
6.19
0.27
-7.48
-17.19
-27.98
-38.66
-48.27
-56.43
-62.92
-67.36
-68.95
-66.76
-60.30
-50.02
-37.48
-24.82
-14.29
-7.36
-4.42
-4.85
-7.40
-10.71
-13.74
-15.96
-17.28
-17.72
-17.22
-15.36
-11.54
-5.29
3.42
13.76
24.26
33.10
38.69
40.25
37.91
32.48
24.99
16.13
6.18
-5.00
-17.35
-30.29
-42.55
-52.29
-57.85
-58.11
-53.13
-44.02
-32.69
-21.24
-11.28
-3.62
1.72
5.23
7.54
9.06
10.04
10.70
11.38
12.55
14.62
17.62
21.17
24.58
27.16
28.51
28.66
27.94
26.66
24.97
22.77
19.75
15.82
11.07
6.00
1.45
-1.86
-3.44
-3.49
-2.62
-1.55
-0.55
1.00
4.42
11.03
21.44
34.85
49.22
61.84
70.49
74.05
72.85
68.20
61.51
53.83
45.51
36.56
27.10
17.69
9.27
2.80
-1.21
-2.99
-3.49
-3.73
-4.41
-5.28
-5.19
-2.79
2.88
11.44
21.03
28.81
31.98
28.89
19.72
6.39
-8.30
-21.79
-32.63
-40.84
-47.19
-52.49
-56.82
-59.32
-59.13
-56.02
-50.86
-45.24
-40.39
-36.36
-31.86
-25.03
-14.81
-1.79
11.69
22.94
30.09
33.20
33.95
34.31
35.45
36.97
37.53
35.90
32.05
27.34
23.85
23.32
26.35
32.34
40.11
48.44
56.72
64.57
71.33
75.98
76.92
72.95
63.83
50.75
36.14
22.79
12.91
7.52
6.51
9.00
13.78
19.91
26.55
33.10
39.11
44.12
47.81
49.88
50.28
49.19
47.02
44.35
41.79
40.03
39.86
42.11
47.51
56.07
66.86
77.64
85.26
86.80
80.44
66.44
47.02
25.52
5.13
-11.97
-24.86
-33.44
-38.00
-38.97
-37.21
-33.92
-30.44
-27.62
-25.14
-21.85
-16.38
-8.32
1.30
9.93
14.38
12.00
1.77
-14.81
-33.32
-47.04
-48.78
-33.74
-1.90
41.05
85.53
122.06
144.96
154.22
153.99
148.98
141.10
128.45
107.13
74.58
31.85
-16.58
-65.21
-110.35
-151.50
-190.51
-228.79
-264.94
-293.95
-308.92
-303.93
-277.47
-233.79
-181.92
-132.54
-94.30
-71.15
-61.61
-60.07
-59.10
-51.77
-33.17
-1.30
42.38
92.80
141.79
179.65
197.85
192.00
163.65
119.98
71.40
27.80
-4.45
-23.97
-33.46
-37.74
-41.26
-46.77
-54.99
-65.17
-75.95
-85.76
-92.98
-95.85
-92.78
-82.83
-66.42
-45.63
-23.89
-4.92
8.53
15.70
17.80
17.30
16.72
17.55
19.92
22.85
25.09
25.80
25.04
23.61
22.72
23.45
26.35
31.21
37.23
43.15
47.69
49.94
49.48
46.45
41.40
35.08
28.17
21.17
14.30
7.59
1.00
-5.30
-10.94
-15.25
-17.55
-17.35
-14.61
-9.83
-3.95
1.92
6.76
9.90
11.09
10.42
8.20
4.77
0.54
-4.10
-8.64
-12.57
-15.43
-16.97
-17.21
-16.44
-15.07
-13.53
-12.08
-10.93
-10.24
-10.17
-10.84
-12.14
-13.75
-15.22
-16.31
-17.17
-18.41
-20.83
-24.99
-30.82
-37.53
-43.80
-48.15
-49.42
-46.96
-40.76
-31.39
-19.83
-7.39
4.55
14.70
22.15
26.58
28.27
27.97
26.65
25.11
23.87
23.04
22.49
22.04
21.64
21.38
21.45
21.89
22.55
23.00
22.76
21.50
19.23
16.32
13.30
10.68
8.60
6.92
5.25
3.26
0.83
-1.99
-5.06
-8.31
-11.63
-14.67
-16.73
-16.73
-13.64
-6.99
2.80
14.34
25.68
35.09
41.59
45.15
46.50
46.52
45.83
44.59
42.78
40.35
37.62
35.07
33.21
32.29
32.15
32.45
32.74
32.77
32.51
32.05
31.49
30.85
30.04
28.91
27.30
25.09
22.20
18.63
14.42
9.53
3.87
-2.67
-9.98
-17.54
-24.32
-29.10
-30.96
-29.77
-26.34
-22.00
-18.08
-15.35
-14.02
-14.01
-15.40
-18.47
-23.46
-30.09
-37.32
-43.57
-47.27
-47.48
-44.21
-38.31
-31.18
-24.30
-18.87
-15.54
-14.37
-14.88
-16.30
-17.84
-18.95
-19.49
-19.50
-19.01
-17.92
-16.03
-13.40
-10.58
-8.43
-7.76
-8.70
-10.46
-11.52
-10.27
-5.67
2.42
13.30
25.89
39.10
52.02
63.82
73.66
80.86
85.20
87.20
88.12
89.51
92.53
97.40
103.21
108.02
109.52
105.70
95.58
79.71
60.13
39.69
21.18
6.35
-4.54
-12.46
-18.80
-24.53
-29.85
-34.37
-37.83
-40.44
-42.77
-45.31
-47.82
-49.38
-48.88
-45.74
-40.43
-34.33
-29.13
-26.11
-25.64
-27.28
-30.18
-33.57
-37.01
-40.37
-43.58
-46.35
-48.22
-48.64
-47.32
-44.42
-40.52
-36.38
-32.63
-29.45
-26.64
-23.83
-20.95
-18.31
-16.71
-16.94
-19.44
-24.05
-30.04
-36.56
-42.85
-48.33
-52.47
-54.62
-53.96
-49.84
-41.99
-30.87
-17.46
-3.17
10.73
23.25
33.74
41.85
47.26
49.91
50.05
48.45
46.33
45.06
45.64
48.26
52.18
55.99
58.09
57.33
53.34
46.68
38.46
29.91
21.92
14.85
8.62
2.97
-2.19
-6.78
-10.61
-13.61
-15.90
-17.63
-18.67
-18.47
-16.04
-10.50
-1.69
9.54
21.10
30.39
34.99
33.58
26.32
14.83
1.53
-11.00
-20.64
-25.96
-26.26
-21.38
-11.79
1.46
16.70
31.77
44.61
53.70
58.60
59.87
58.66
56.09
52.76
48.56
42.98
35.40
25.59
13.78
0.77
-12.24
-24.01
-33.44
-40.04
-43.77
-44.97
-44.01
-40.88
-35.13
-26.08
-13.21
3.41
22.85
43.38
62.80
78.98
90.14
95.25
94.04
87.01
75.44
61.10
46.10
32.42
21.53
14.06
9.75
7.63
6.43
5.07
2.94
0.12
-2.73
-4.68
-4.80
-2.66
1.47
6.56
11.00
13.12
11.64
6.20
-2.54
-12.94
-22.87
-30.30
-33.83
-33.17
-29.09
-23.21
-17.32
-12.88
-10.61
-10.49
-12.00
-14.45
-17.28
-20.13
-22.69
-24.66
-25.71
-25.56
-24.17
-21.75
-18.73
-15.69
-13.07
-11.23
-10.29
-10.25
-10.96
-12.20
-13.71
-15.24
-16.68
-18.02
-19.40
-21.06
-23.17
-25.87
-28.99
-32.10
-34.53
-35.52
-34.50
-31.27
-26.09
-19.66
-12.91
-6.73
-1.84
1.44
3.08
3.27
2.27
0.34
-2.26
-5.26
-8.31
-11.14
-13.48
-15.30
-16.70
-18.07
-19.74
-21.98
-24.83
-28.13
-31.57
-34.88
-37.85
-40.41
-42.52
-44.20
-45.47
-46.44
-47.32
-48.43
-50.10
-52.56
-55.88
-60.00
-64.78
-70.04
-75.37
-80.07
-82.94
-82.46
-77.02
-65.50
-47.58
-24.12
3.09
31.65
59.17
83.68
104.04
120.03
132.28
141.92
150.11
157.45
163.70
167.72
167.90
162.88
152.20
136.65
118.10
98.88
81.13
66.27
54.82
46.59
40.98
37.20
34.42
31.87
28.87
25.00
20.22
14.91
9.71
5.25
1.82
-0.69
-2.69
-4.68
-6.95
-9.54
-12.21
-14.61
-16.40
-17.33
-17.34
-16.47
-14.97
-13.13
-11.30
-9.81
-8.84
-8.44
-8.47
-8.67
-8.85
-8.92
-8.94
-9.10
-9.58
-10.42
-11.53
-12.68
-13.64
-14.17
-14.12
-13.40
-12.03
-10.13
-7.88
-5.52
-3.28
-1.32
0.28
1.58
2.67
3.58
4.37
4.99
5.35
5.35
4.92
4.05
2.94
1.96
1.53
2.08
3.81
6.63
10.11
13.68
16.78
19.04
20.35
20.83
20.65
19.94
18.71
16.94
14.56
11.69
8.52
5.35
2.43
-0.18
-2.55
-4.82
-7.10
-9.46
-11.89
-14.37
-16.92
-19.56
-22.30
-25.10
-27.91
-30.62
-33.17
-35.51
-37.60
-39.39
-40.85
-42.04
-43.05
-43.98
-44.89
-45.66
-46.15
-46.21
-45.85
-45.15
-44.21
-42.98
-41.17
-38.37
-34.16
-28.46
-21.53
-14.02
-6.71
-0.27
4.90
8.75
11.38
13.02
13.82
13.87
13.27
12.18
10.79
9.35
7.99
6.66
5.10
2.99
0.03
-3.77
-8.13
-12.55
-16.55
-20.03
-23.30
-27.01
-31.81
-37.98
-45.30
-53.08
-60.52
-66.97
-72.18
-76.27
-79.52
-82.20
-84.37
-85.78
-86.11
-84.94
-82.07
-77.46
-71.27
-63.66
-54.85
-44.96
-34.21
-23.09
-12.34
-2.79
4.86
10.38
14.13
16.79
19.09
21.53
24.20
26.92
29.51
31.84
33.99
36.10
38.23
40.40
42.48
44.29
45.71
46.57
46.75
46.15
44.70
42.49
39.72
36.68
33.71
31.11
29.10
27.80
27.21
27.21
27.59
28.04
28.22
27.90
27.06
25.92
24.78
23.91
23.38
22.99
22.43
21.36
19.69
17.59
15.45
13.77
12.94
13.05
13.97
15.33
16.74
17.92
18.62
18.74
18.12
16.68
14.44
11.62
8.72
6.29
4.72
3.99
3.69
3.22
2.15
0.48
-1.47
-3.22
-4.51
-5.38
-6.08
-6.79
-7.46
-7.80
-7.50
-6.46
-4.98
-3.55
-2.66
-2.46
-2.67
-2.65
-1.77
0.38
3.74
7.89
12.10
15.67
18.17
19.52
19.97
19.84
19.37
18.54
17.13
14.82
11.48
7.24
2.45
-2.42
-7.06
-11.40
-15.57
-19.76
-23.99
-28.04
-31.53
-34.16
-35.85
-36.91
-37.84
-39.17
-41.20
-43.90
-47.00
-50.10
-52.87
-55.13
-56.90
-58.26
-59.44
-60.59
-61.73
-62.66
-63.00
-62.21
-59.80
-55.50
-49.41
-42.00
-33.97
-26.12
-19.10
-13.41
-9.23
-6.52
-5.01
-4.33
-4.07
-3.82
-3.18
-1.86
0.38
3.57
7.50
11.78
15.79
18.92
20.74
21.14
20.34
18.71
16.57
14.07
11.16
7.75
3.83
-0.41
-4.64
-8.49
-11.82
-14.69
-17.37
-20.23
-23.53
-27.40
-31.74
-36.24
-40.35
-43.30
-44.30
-42.62
-37.94
-30.46
-21.00
-10.75
-1.05
6.99
12.77
16.17
17.49
17.20
15.84
13.97
12.08
10.62
9.93
10.10
10.92
11.92
12.47
12.12
10.64
8.25
5.39
2.64
0.48
-0.84
-1.40
-1.65
-2.20
-3.59
-6.11
-9.63
-13.71
-17.73
-21.28
-24.25
-26.91
-29.76
-33.29
-37.82
-43.39
-49.69
-56.08
-61.60
-65.08
-65.53
-62.39
-55.85
-46.83
-36.74
-27.03
-18.78
-12.61
-8.64
-6.72
-6.51
-7.57
-9.34
-11.24
-12.66
-13.15
-12.50
-10.78
-8.24
-5.34
-2.49
-0.07
1.79
3.13
4.14
5.02
5.83
6.40
6.54
6.07
5.05
3.78
2.64
1.90
1.57
1.39
0.97
-0.12
-2.11
-4.99
-8.38
-11.59
-13.62
-13.50
-10.50
-4.52
3.80
13.26
22.50
30.47
36.70
41.28
44.63
47.04
48.62
49.25
48.83
47.46
45.59
43.81
42.65
42.41
42.96
43.96
44.91
45.41
45.23
44.34
42.94
41.51
40.68
41.23
43.77
48.51
55.08
62.64
70.06
76.32
80.69
82.78
82.54
80.14
76.00
70.74
65.19
60.16
56.15
53.27
51.17
49.29
47.20
44.71
41.95
39.18
36.59
34.24
32.11
30.25
28.95
28.70
29.98
33.00
37.54
43.00
48.64
53.89
58.34
61.60
63.08
61.92
57.27
48.84
37.34
24.41
12.07
1.78
-6.23
-13.03
-20.41
-29.92
-42.07
-56.15
-70.70
-84.26
-96.10
-106.31
-115.61
-124.75
-134.10
-143.52
-152.34
-159.61
-164.31
-165.45
-162.26
-154.38
-142.04
-126.21
-108.50
-90.79
-74.84
-61.85
-52.28
-45.88
-41.87
-39.20
-36.81
-33.82
-29.69
-24.34
-18.10
-11.59
-5.50
-0.34
3.76
7.03
9.87
12.61
15.19
17.14
17.71
16.21
12.34
6.42
-0.65
-7.71
-13.69
-17.98
-20.67
-22.47
-24.48
-27.73
-32.77
-39.34
-46.26
-51.69
-53.64
-50.71
-42.51
-29.99
-15.13
-0.31
12.42
21.85
27.80
30.90
32.14
32.48
32.51
32.38
31.93
30.89
29.13
26.89
24.95
24.43
26.47
31.71
39.89
49.81
59.71
67.78
72.83
74.47
73.07
69.31
63.84
57.05
49.20
40.61
31.86
23.67
16.68
11.03
6.38
2.01
-2.76
-8.29
-14.54
-21.18
-27.77
-33.85
-38.86
-42.02
-42.45
-39.40
-32.71
-23.00
-11.60
-0.15
9.91
17.73
23.13
26.40
28.05
28.58
28.44
27.95
27.44
27.17
27.39
28.23
29.72
31.70
33.88
35.87
37.24
37.73
37.31
36.24
34.95
33.83
33.05
32.37
31.29
29.25
25.83
21.06
15.40
9.59
4.34
0.13
-3.04
-5.56
-8.01
-10.91
-14.50
-18.83
-23.71
-28.92
-34.03
-38.37
-40.85
-40.24
-35.46
-26.12
-12.79
3.02
19.26
33.86
45.25
52.57
55.72
55.20
51.94
47.12
41.97
37.49
34.37
32.78
32.52
33.05
33.71
33.86
33.03
30.99
27.79
23.78
19.42
15.16
11.23
7.67
4.25
0.63
-3.50
-8.32
-13.67
-19.07
-23.78
-27.02
-28.17
-26.96
-23.56
-18.43
-12.25
-5.71
0.53
5.96
10.30
13.58
16.21
18.90
22.40
27.10
32.86
38.99
44.57
48.77
51.27
52.15
51.87
50.93
49.72
48.49
47.41
46.57
46.04
45.77
45.53
44.97
43.74
41.65
38.82
35.57
32.30
29.41
27.08
25.29
23.87
22.58
21.08
18.87
15.32
9.65
1.17
-10.59
-25.74
-43.91
-64.31
-85.83
-107.01
-126.34
-142.37
-153.98
-160.62
-162.38
-159.80
-153.70
-145.03
-134.70
-123.68
-112.93
-103.30
-95.33
-89.05
-84.07
-79.80
-75.75
-71.74
-67.79
-63.98
-60.23
-56.14
-51.23
-45.01
-37.24
-28.06
-17.92
-7.39
3.11
13.46
23.78
34.17
44.41
53.82
61.46
66.51
68.65
68.10
65.31
60.59
53.81
44.66
33.05
19.60
5.74
-6.58
-15.52
-19.85
-19.10
-13.68
-4.55
6.90
19.04
30.33
39.54
46.02
49.70
50.96
50.35
48.47
45.86
43.06
40.67
39.19
38.96
39.98
41.90
44.11
45.93
46.70
45.88
43.16
38.40
31.79
23.70
14.77
5.67
-3.04
-11.01
-18.11
-24.41
-30.15
-35.65
-41.29
-47.45
-54.35
-61.86
-69.28
-75.32
-78.44
-77.26
-71.14
-60.55
-46.98
-32.57
-19.41
-9.06
-2.21
1.17
1.66
0.07
-2.79
-6.19
-9.53
-12.42
-14.63
-16.15
-17.10
-17.68
-18.01
-18.10
-17.83
-16.96
-15.25
-12.61
-9.28
-5.86
-3.17
-1.91
-2.38
-4.30
-7.03
-9.89
-12.53
-15.11
-18.13
-22.11
-27.28
-33.38
-39.74
-45.39
-49.27
-50.48
-48.42
-42.96
-34.57
-24.34
-13.63
-3.84
4.04
9.60
12.98
14.72
15.42
15.55
15.37
15.03
14.70
14.61
15.02
16.00
17.36
18.68
19.51
19.62
19.12
18.39
17.88
17.74
17.69
17.11
15.32
12.00
7.34
2.07
-2.74
-6.13
-7.50
-6.84
-4.76
-2.17
-0.07
0.78
0.11
-1.82
-4.27
-6.16
-6.39
-4.14
0.91
8.43
17.53
27.00
35.64
42.50
47.15
49.66
50.50
50.41
50.15
50.29
51.19
52.92
55.22
57.71
59.90
61.35
61.76
60.96
58.97
55.96
52.16
47.83
43.18
38.35
33.37
28.29
23.09
17.83
12.58
7.44
2.48
-2.28
-6.86
-11.37
-15.90
-20.48
-24.87
-28.51
-30.59
-30.23
-26.83
-20.46
-11.93
-2.53
6.30
13.49
18.51
21.35
22.28
21.68
19.88
17.28
14.33
11.60
9.60
8.70
9.04
10.61
13.24
16.73
20.76
24.97
28.92
32.22
34.60
35.96
36.31
35.66
34.06
31.56
28.35
24.82
21.43
18.60
16.48
14.83
13.01
10.27
6.04
0.29
-6.27
-12.24
-15.92
-15.91
-11.66
-3.67
6.55
17.12
26.33
33.21
37.59
39.92
40.84
40.87
40.30
39.29
38.02
36.79
36.00
35.96
36.74
38.09
39.55
40.69
41.27
41.29
40.98
40.60
40.37
40.45
40.86
41.53
42.16
42.25
41.29
38.93
35.19
30.62
25.96
21.85
18.44
15.29
11.54
6.41
-0.42
-8.56
-16.91
-24.00
-28.44
-29.35
-26.62
-20.99
-13.78
-6.54
-0.58
3.28
4.81
4.12
1.57
-2.37
-7.16
-12.12
-16.53
-19.78
-21.54
-21.86
-21.13
-19.84
-18.44
-17.24
-16.40
-15.99
-16.06
-16.59
-17.48
-18.60
-19.81
-21.08
-22.49
-24.19
-26.31
-28.87
-31.62
-34.24
-36.37
-37.82
-38.66
-39.13
-39.60
-40.35
-41.59
-43.36
-45.55
-47.82
-49.66
-50.39
-49.28
-45.82
-39.90
-31.93
-22.77
-13.46
-4.99
1.91
6.81
9.57
10.31
9.38
7.36
4.96
2.87
1.58
1.30
1.91
3.13
4.61
6.05
7.23
8.02
8.37
8.34
8.02
7.49
6.72
5.57
3.87
1.54
-1.25
-4.09
-6.53
-8.25
-9.27
-9.91
-10.72
-12.21
-14.67
-18.05
-21.93
-25.52
-27.89
-28.19
-25.91
-21.09
-14.35
-6.73
0.66
6.94
11.69
14.92
16.80
17.57
17.38
16.38
14.82
13.09
11.67
10.97
11.15
12.11
13.48
14.84
15.84
16.28
16.14
15.49
14.45
13.06
11.33
9.27
6.89
4.27
1.51
-1.27
-3.93
-6.37
-8.54
-10.46
-12.25
-14.13
-16.32
-19.04
-22.34
-26.02
-29.55
-32.14
-32.91
-31.16
-26.63
-19.69
-11.29
-2.71
4.84
10.59
14.33
16.40
17.38
17.77
17.85
17.69
17.27
16.65
16.04
15.73
15.99
16.85
18.16
19.60
20.84
21.65
21.95
21.79
21.30
20.53
19.48
18.12
16.44
14.47
12.24
9.80
7.14
4.22
1.09
-2.12
-5.21
-7.92
-10.07
-11.71
-13.03
-14.43
-16.39
-19.23
-22.93
-27.02
-30.61
-32.61
-32.15
-28.92
-23.35
-16.46
-9.54
-3.66
0.60
3.20
4.47
4.82
4.57
3.86
2.75
1.25
-0.49
-2.23
-3.67
-4.56
-4.76
-4.29
-3.39
-2.36
-1.51
-1.00
-0.80
-0.74
-0.64
-0.41
-0.14
-0.10
-0.60
-1.83
-3.72
-5.96
-8.12
-9.78
-10.74
-11.13
-11.27
-11.57
-12.39
-13.91
-16.14
-18.91
-21.77
-24.15
-25.28
-24.48
-21.35
-16.01
-9.13
-1.70
5.22
10.85
14.80
17.07
17.92
17.63
16.46
14.70
12.62
10.59
8.98
8.08
7.95
8.41
9.11
9.64
9.69
9.22
8.42
7.59
6.99
6.74
6.72
6.73
6.53
5.96
4.98
3.64
2.02
0.18
-1.89
-4.30
-7.30
-11.19
-16.17
-22.18
-28.79
-35.15
-40.20
-42.93
-42.72
-39.60
-34.18
-27.45
-20.52
-14.19
-8.90
-4.83
-1.98
-0.30
0.19
-0.39
-1.77
-3.49
-4.96
-5.70
-5.50
-4.42
-2.79
-1.04
0.47
1.53
2.12
2.35
2.42
2.46
2.57
2.66
2.55
1.98
0.81
-0.96
-3.11
-5.28
-7.15
-8.59
-9.72
-10.88
-12.45
-14.70
-17.77
-21.54
-25.74
-29.93
-33.54
-35.85
-36.17
-33.98
-29.16
-22.02
-13.31
-3.94
5.12
13.09
19.48
24.13
27.18
28.98
29.99
30.62
31.20
31.95
33.05
34.66
36.76
38.93
40.32
39.72
36.13
29.24
19.82
9.51
0.26
-6.50
-10.42
-12.22
-13.25
-14.77
-17.41
-21.11
-25.30
-29.34
-32.81
-35.49
-37.22
-37.79
-36.95
-34.54
-30.68
-25.78
-20.37
-14.90
-9.42
-3.60
3.08
11.08
20.48
30.88
41.51
51.42
59.69
65.58
68.59
68.55
65.68
60.65
54.46
48.21
42.78
38.57
35.42
32.90
30.53
28.10
25.64
23.25
20.97
18.66
16.08
12.96
9.19
4.72
-0.36
-5.90
-11.65
-17.16
-21.90
-25.44
-27.57
-28.47
-28.56
-28.37
-28.28
-28.48
-29.00
-29.80
-30.89
-32.24
-33.82
-35.50
-37.06
-38.25
-38.80
-38.49
-37.13
-34.65
-31.05
-26.55
-21.55
-16.55
-12.06
-8.50
-6.08
-4.78
-4.39
-4.48
-4.53
-3.98
-2.31
0.69
4.86
9.47
13.45
15.66
15.35
12.46
7.70
2.15
-3.19
-7.74
-11.47
-14.65
-17.47
-19.86
-21.67
-22.97
-24.22
-26.13
-29.26
-33.54
-38.22
-42.29
-45.04
-46.52
-47.40
-48.53
-50.27
-52.23
-53.39
-52.70
-49.61
-44.31
-37.57
-30.30
-23.21
-16.57
-10.41
-4.64
0.65
5.25
8.87
11.37
12.88
13.77
14.51
15.39
16.39
17.12
17.05
15.83
13.46
10.38
7.18
4.36
2.06
0.00
-2.29
-5.25
-8.99
-13.20
-17.36
-20.94
-23.62
-25.52
-26.97
-28.48
-30.44
-33.07
-36.37
-40.04
-43.57
-46.23
-47.20
-45.68
-41.21
-33.81
-24.06
-13.06
-2.07
7.74
15.55
21.04
24.40
26.11
26.78
26.87
26.65
26.11
25.16
23.79
22.15
20.57
19.38
18.78
18.73
19.04
19.46
19.75
19.81
19.58
19.05
18.20
17.03
15.55
13.73
11.50
8.72
5.25
1.10
-3.54
-8.27
-12.68
-16.42
-19.42
-21.83
-23.98
-26.27
-29.20
-33.25
-38.66
-45.31
-52.40
-58.50
-61.82
-60.78
-54.58
-43.58
-29.26
-13.68
1.08
13.50
22.82
29.01
32.51
33.96
34.01
33.18
32.00
30.87
30.12
29.98
30.50
31.58
32.98
34.50
35.94
37.28
38.50
39.55
40.29
40.49
39.97
38.74
37.09
35.51
34.36
33.74
33.43
33.07
32.36
31.28
30.06
28.99
28.13
27.29
26.10
24.16
21.24
17.22
12.18
6.45
0.72
-3.95
-6.14
-4.55
1.59
12.13
25.91
41.06
55.60
67.96
77.25
83.23
86.11
86.33
84.51
81.39
77.79
74.47
71.85
69.79
67.64
64.49
59.66
53.14
45.72
38.69
33.35
30.56
30.42
32.44
35.78
39.60
43.18
45.97
47.43
47.04
44.35
39.14
31.62
22.42
12.39
2.35
-7.08
-15.58
-23.21
-30.30
-37.26
-44.41
-51.70
-58.66
-64.44
-68.03
-68.61
-65.82
-59.87
-51.46
-41.63
-31.55
-22.50
-15.74
-12.26
-12.60
-16.51
-22.86
-29.87
-35.64
-38.69
-38.35
-34.74
-28.61
-20.98
-12.82
-4.90
2.13
7.77
11.60
13.27
12.69
10.01
5.60
0.01
-6.23
-12.64
-18.83
-24.50
-29.42
-33.54
-37.04
-40.40
-44.17
-48.60
-53.31
-57.11
-58.28
-55.26
-47.35
-35.12
-20.40
-5.56
7.23
16.74
22.82
26.17
27.69
28.06
27.43
25.63
22.52
18.32
13.71
9.71
7.16
6.41
7.16
8.65
10.01
10.69
10.54
9.71
8.40
6.61
4.13
0.75
-3.51
-8.35
-13.30
-17.87
-21.84
-25.25
-28.37
-31.64
-35.58
-40.67
-47.11
-54.59
-61.99
-67.59
-69.45
-66.17
-57.46
-44.50
-29.49
-15.00
-3.07
5.27
10.04
11.91
11.76
10.33
8.19
5.81
3.70
2.41
2.31
3.39
5.25
7.17
8.46
8.72
8.01
6.75
5.48
4.41
3.35
1.63
-1.50
-6.48
-13.20
-20.89
-28.47
-34.94
-39.77
-43.08
-45.58
-48.24
-52.07
-57.76
-65.43
-74.34
-82.74
-88.05
-87.55
-79.41
-63.53
-41.85
-17.85
4.67
22.87
35.59
43.30
47.38
49.20
49.49
48.47
46.20
43.07
39.88
37.61
36.98
38.04
40.22
42.52
44.00
44.14
43.00
41.05
38.84
36.61
34.12
30.76
25.81
18.83
9.80
-0.74
-11.87
-22.44
-31.24
-37.29
-39.99
-39.40
-36.19
-31.65
-27.34
-24.70
-24.68
-27.41
-32.16
-37.57
-42.05
-44.38
-44.08
-41.43
-37.17
-32.09
-26.52
-20.34
-13.29
-5.35
2.94
10.54
16.39
19.82
20.93
20.41
19.28
18.41
18.32
19.13
20.74
22.93
25.46
28.11
30.66
32.86
34.45
35.15
34.70
32.87
29.54
24.87
19.21
13.19
7.49
2.63
-1.15
-3.98
-6.30
-8.65
-11.58
-15.45
-20.35
-26.00
-31.61
-36.03
-37.95
-36.32
-30.73
-21.62
-10.20
1.89
13.07
22.11
28.32
31.57
32.09
30.38
27.09
22.97
18.80
15.27
12.84
11.70
11.68
12.44
13.54
14.66
15.62
16.34
16.82
16.92
16.31
14.64
11.65
7.36
2.19
-3.16
-7.87
-11.24
-12.95
-13.08
-12.12
-10.92
-10.38
-11.34
-14.19
-18.68
-23.78
-27.87
-29.13
-26.17
-18.57
-7.05
6.64
20.24
31.67
39.47
43.06
42.67
39.03
33.07
25.71
17.85
10.37
4.24
0.42
-0.36
2.09
7.20
13.70
19.87
24.12
25.34
23.23
18.22
11.29
3.60
-3.82
-10.29
-15.57
-19.85
-23.65
-27.69
-32.67
-39.01
-46.66
-54.84
-62.01
-66.13
-65.14
-57.91
-44.77
-27.70
-9.82
5.74
16.80
22.82
24.68
23.95
22.10
19.96
17.81
15.72
13.93
12.85
12.89
14.09
16.05
18.07
19.54
20.18
20.00
19.26
18.15
16.66
14.61
11.79
8.16
3.89
-0.70
-5.33
-9.76
-14.02
-18.26
-22.73
-27.70
-33.21
-38.95
-44.03
-47.16
-46.98
-42.62
-34.12
-22.56
-9.74
2.36
12.15
18.82
22.37
23.31
22.41
20.51
18.35
16.59
15.65
15.72
16.69
18.21
19.81
21.08
21.73
21.71
21.10
20.12
18.97
17.82
16.66
15.43
14.00
12.25
10.14
7.70
5.04
2.27
-0.55
-3.53
-6.91
-10.97
-15.82
-21.05
-25.63
-28.04
-26.80
-21.02
-10.85
2.45
16.99
30.83
42.57
51.52
57.59
61.01
62.05
60.95
58.05
53.83
48.93
44.06
39.73
36.18
33.23
30.45
27.30
23.36
18.56
13.13
7.53
2.19
-2.67
-7.12
-11.40
-15.71
-20.00
-23.91
-27.00
-28.91
-29.62
-29.51
-29.25
-29.56
-30.96
-33.61
-37.19
-40.93
-43.74
-44.39
-41.93
-35.99
-26.99
-16.08
-4.78
5.45
13.61
19.26
22.47
23.54
22.83
20.76
17.76
14.38
11.19
8.70
7.23
6.87
7.46
8.69
10.15
11.42
12.15
12.14
11.40
10.09
8.44
6.62
4.70
2.64
0.36
-2.17
-4.92
-7.75
-10.53
-13.15
-15.61
-18.06
-20.71
-23.82
-27.47
-31.43
-35.09
-37.46
-37.55
-34.70
-28.84
-20.72
-11.59
-2.87
4.29
9.33
12.15
13.07
12.49
10.80
8.39
5.67
3.08
1.02
-0.24
-0.78
-0.79
-0.52
-0.04
0.75
2.06
3.96
6.27
8.53
10.23
11.09
11.09
10.49
9.59
8.53
7.29
5.80
4.10
2.39
0.79
-0.83
-2.97
-6.27
-11.05
-16.98
-23.05
-27.93
-30.59
-30.82
-29.38
-27.77
-27.62
-30.22
-36.08
-44.85
-55.46
-66.51
-76.55
-84.48
-89.69
-92.21
-92.57
-91.63
-90.41
-89.74
-90.10
-91.31
-92.30
-90.99
-84.77
-71.37
-50.03
-22.32
7.99
35.92
57.08
69.22
72.86
70.81
66.62
63.13
61.63
61.90
63.07
64.35
65.42
66.27
66.82
66.67
65.27
62.30
58.07
53.48
49.75
47.81
47.88
49.32
50.96
51.60
50.58
47.92
44.30
40.63
37.66
35.72
34.78
34.61
35.00
35.89
37.31
39.30
41.76
44.44
47.05
49.31
51.09
52.36
53.19
53.70
54.07
54.44
54.95
55.59
56.31
56.88
56.98
56.31
54.56
51.72
48.12
44.53
42.08
41.97
45.08
51.75
61.65
74.07
88.14
103.15
118.36
132.80
145.09
153.44
156.05
151.58
139.55
120.53
96.13
68.92
42.01
18.45
0.38
-11.79
-19.64
-26.31
-35.16
-48.54
-66.92
-89.05
-112.86
-136.55
-159.08
-179.90
-198.50
-214.03
-225.55
-232.67
-236.02
-237.23
-238.29
-240.64
-244.67
-249.65
-254.26
-257.16
-257.41
-254.48
-248.10
-238.06
-224.24
-206.74
-186.13
-163.52
-140.53
-118.71
-98.98
-81.03
-63.14
-42.68
-16.90
16.14
57.09
105.23
158.62
214.30
268.43
316.37
353.14
374.45
377.80
363.19
332.98
290.84
240.47
184.69
125.45
64.50
4.07
-53.08
-104.15
-147.16
-181.42
-207.16
-224.70
-233.75
-233.28
-222.20
-200.55
-170.06
-134.11
-96.78
-61.56
-30.51
-4.11
18.16
37.05
52.84
65.35
74.32
79.80
82.48
83.49
84.04
84.95
86.43
88.05
89.13
89.05
87.60
84.98
81.64
78.03
74.39
70.76
67.05
63.23
59.37
55.48
51.58
47.58
43.40
39.08
34.73
30.51
26.52
22.82
19.36
16.16
13.31
10.93
9.18
8.06
7.45
7.13
6.96
6.97
7.44
8.79
11.46
15.69
21.42
28.26
35.60
42.82
49.49
55.52
61.04
66.34
71.63
76.84
81.62
85.39
87.53
87.37
84.28
77.75
67.67
54.56
39.74
25.12
12.71
3.86
-1.08
-2.80
-2.54
-1.48
-0.40
0.27
0.11
-1.66
-6.06
-14.03
-25.76
-40.42
-56.11
-70.50
-81.53
-88.14
-90.46
-89.68
-87.41
-85.14
-83.76
-83.42
-83.75
-84.06
-83.78
-82.53
-80.24
-77.02
-73.08
-68.64
-63.92
-59.18
-54.70
-50.76
-47.53
-44.91
-42.61
-40.13
-37.02
-33.18
-29.01
-25.38
-23.30
-23.52
-26.11
-30.45
-35.44
-39.95
-43.17
-44.88
-45.26
-44.79
-43.96
-43.16
-42.72
-42.75
-43.23
-43.76
-43.61
-41.84
-37.62
-30.59
-21.09
-10.11
1.04
11.15
19.39
25.51
29.62
32.04
33.18
33.36
32.97
32.49
32.54
33.72
36.43
40.73
46.30
52.59
58.98
64.82
69.60
72.93
74.68
75.05
74.37
73.06
71.20
68.53
64.74
59.88
54.66
50.33
48.06
48.12
49.50
50.26
48.43
43.06
34.56
24.49
14.63
6.07
-1.08
-7.61
-14.52
-22.47
-31.47
-41.04
-50.41
-58.95
-66.25
-72.27
-77.16
-81.15
-84.31
-86.48
-87.40
-86.76
-84.47
-80.60
-75.35
-68.87
-61.15
-52.13
-41.90
-30.98
-20.32
-11.13
-4.55
-1.19
-1.00
-3.34
-7.31
-12.23
-17.84
-24.27
-31.71
-40.00
-48.51
-56.25
-62.18
-65.55
-66.08
-63.86
-59.12
-52.14
-43.20
-32.73
-21.54
-10.79
-1.84
4.23
6.97
6.76
4.62
1.82
-0.60
-2.12
-2.80
-3.03
-3.27
-3.75
-4.47
-5.24
-5.76
-5.53
-3.67
1.21
10.84
26.76
49.49
77.96
109.48
140.42
167.21
187.32
199.66
204.35
202.23
194.32
181.67
165.47
147.17
128.47
110.84
95.14
81.31
68.51
55.50
41.18
25.01
7.15
-11.63
-30.19
-47.46
-62.80
-76.12
-87.72
-97.92
-106.61
-113.16
-116.76
-116.96
-114.09
-109.13
-103.16
-96.78
-89.87
-82.08
-73.59
-65.52
-59.55
-56.73
-56.54
-56.92
-55.35
-50.54
-43.27
-35.56
-29.19
-24.44
-20.28
-15.68
-11.05
-8.46
-10.36
-17.76
-29.13
-40.92
-49.47
-52.84
-51.51
-47.37
-42.21
-36.50
-29.52
-20.31
-8.78
4.02
16.20
26.09
32.76
36.38
37.82
38.22
38.54
39.01
39.38
39.18
38.08
36.24
34.35
33.09
32.78
33.02
32.75
30.76
26.25
19.20
10.35
0.83
-8.30
-16.45
-23.55
-29.88
-35.84
-41.69
-47.48
-53.09
-58.27
-62.68
-65.98
-67.76
-67.65
-65.40
-60.84
-54.09
-45.46
-35.59
-25.32
-15.69
-7.64
-1.84
1.54
2.86
2.85
2.26
1.65
1.40
1.99
4.17
8.77
16.22
25.88
36.03
44.40
49.32
50.76
50.60
51.75
56.71
65.94
77.50
87.89
93.95
94.51
91.03
86.72
84.63
86.01
89.60
92.53
91.92
86.59
77.61
67.54
58.95
53.28
50.45
49.46
49.32
49.70
50.81
52.81
55.20
56.48
54.45
47.04
33.00
12.50
-12.74
-39.94
-65.90
-87.68
-103.05
-110.67
-110.05
-101.78
-87.55
-70.20
-53.21
-39.68
-31.34
-27.87
-27.17
-26.41
-23.35
-17.22
-8.85
0.11
8.02
13.90
17.57
19.54
20.72
22.11
24.63
28.63
33.74
39.02
43.53
46.97
49.76
52.52
55.41
57.61
57.74
54.78
49.04
42.15
36.36
33.21
32.71
33.46
33.63
32.19
29.43
26.56
24.86
24.82
25.99
27.38
28.18
28.21
27.73
27.12
26.42
25.21
22.88
19.11
14.24
9.32
5.71
4.38
5.70
9.01
12.88
15.44
14.82
9.43
-1.88
-19.54
-42.93
-70.30
-98.99
-126.02
-148.58
-164.35
-171.67
-169.66
-158.59
-140.25
-118.06
-96.52
-80.10
-71.82
-72.44
-80.53
-93.24
-107.30
-119.64
-127.63
-128.98
-121.79
-105.19
-80.08
-49.26
-16.81
13.07
37.24
54.35
64.71
69.77
71.31
70.90
69.77
68.70
68.21
68.46
69.40
70.71
72.02
72.93
73.10
72.23
70.01
66.08
60.14
52.05
41.93
30.14
17.13
3.38
-10.59
-24.19
-36.64
-47.16
-55.10
-60.28
-63.08
-64.42
-65.33
-66.51
-68.01
-69.12
-68.59
-65.17
-58.04
-47.20
-33.47
-18.33
-3.36
10.09
21.28
30.13
37.05
42.69
47.59
52.11
56.28
60.02
63.16
65.56
67.05
67.46
66.61
64.46
61.14
56.91
52.01
46.52
40.38
33.62
26.70
20.55
16.23
14.31
14.32
14.67
13.27
8.50
0.05
-10.87
-22.03
-31.15
-36.82
-38.92
-38.46
-36.96
-35.75
-35.71
-37.09
-39.85
-43.78
-48.62
-53.96
-59.07
-62.97
-64.56
-63.06
-58.36
-51.19
-42.97
-35.30
-29.49
-26.12
-24.99
-25.31
-26.11
-26.60
-26.37
-25.41
-23.90
-22.11
-20.11
-17.86
-15.24
-12.20
-8.85
-5.51
-2.65
-0.72
-0.27
-1.92
-6.31
-13.80
-24.01
-35.50
-45.84
-52.34
-53.11
-48.00
-38.87
-28.84
-21.10
-17.65
-18.74
-23.25
-29.55
-36.33
-42.82
-48.58
-52.93
-54.78
-52.97
-46.83
-36.80
-24.45
-12.03
-1.56
5.84
10.30
12.85
14.78
17.01
19.68
22.28
24.16
25.00
25.16
25.43
26.33
27.85
29.26
29.52
27.98
24.71
20.45
16.25
12.99
11.06
10.52
11.19
12.83
15.45
19.06
23.62
29.05
35.01
40.91
46.07
50.13
53.47
57.27
62.64
69.75
77.24
82.89
85.00
83.78
81.62
81.91
87.21
97.62
110.87
123.47
132.61
137.20
137.85
135.73
131.63
125.53
117.08
106.31
93.95
81.01
68.48
56.79
45.73
34.81
23.67
12.46
1.87
-7.14
-13.73
-17.45
-18.43
-17.30
-14.93
-12.15
-9.55
-7.36
-5.39
-3.22
-0.31
3.52
7.87
11.67
13.54
12.33
7.76
0.75
-6.80
-12.59
-14.82
-12.85
-7.41
-0.33
6.20
10.38
11.35
9.30
5.17
0.17
-4.78
-9.25
-13.42
-17.82
-22.94
-28.93
-35.48
-41.90
-47.48
-51.72
-54.49
-55.94
-56.20
-55.34
-53.30
-50.21
-46.46
-42.75
-39.88
-38.51
-38.99
-41.40
-45.64
-51.54
-58.80
-66.84
-74.68
-81.09
-84.92
-85.44
-82.66
-77.28
-70.43
-63.15
-56.20
-49.94
-44.48
-40.08
-37.26
-36.61
-38.53
-42.69
-47.88
-52.26
-53.95
-51.76
-45.59
-36.39
-25.77
-15.55
-7.24
-1.88
0.11
-0.97
-4.06
-7.30
-8.13
-3.73
8.47
30.26
62.05
102.53
148.40
194.68
235.48
265.36
280.60
280.11
265.49
240.19
208.42
174.20
140.95
111.48
87.98
71.79
63.00
60.10
60.30
60.29
57.34
50.09
38.88
25.35
11.71
-0.01
-8.62
-13.99
-16.85
-18.45
-19.95
-22.04
-24.94
-28.54
-32.81
-37.97
-44.45
-52.56
-62.21
-72.88
-83.71
-93.86
-102.80
-110.50
-117.49
-124.61
-132.65
-141.91
-151.76
-160.87
-167.62
-170.88
-170.71
-168.17
-164.80
-161.69
-159.00
-156.10
-152.02
-145.79
-136.11
-121.21
-99.12
-68.83
-31.87
7.08
41.31
64.84
75.20
74.69
69.00
64.12
63.27
65.82
68.51
68.34
64.74
59.92
57.13
58.00
61.22
63.09
59.93
50.48
36.82
23.23
13.42
8.15
4.59
-2.42
-17.59
-42.86
-76.73
-115.35
-154.18
-188.94
-215.91
-231.93
-234.95
-224.99
-204.82
-179.47
-154.35
-132.93
-115.47
-99.39
-81.31
-59.10
-33.15
-5.85
19.79
41.43
58.09
69.67
76.23
77.62
73.61
64.39
50.94
35.10
19.47
6.67
-1.23
-3.44
-0.48
5.89
13.25
19.21
22.11
21.37
17.45
11.47
4.71
-1.75
-7.28
-11.58
-14.41
-15.51
-14.62
-11.90
-8.17
-4.84
-3.33
-4.60
-8.47
-13.84
-19.09
-22.80
-24.24
-23.55
-21.51
-19.08
-17.11
-16.14
-16.41
-17.75
-19.45
-20.01
-17.20
-8.47
8.12
33.06
64.71
99.39
132.17
158.09
173.39
176.46
168.06
150.98
129.27
107.26
88.56
75.53
68.95
68.14
71.43
76.65
81.72
85.04
85.84
84.17
80.74
76.38
71.69
66.81
61.48
55.39
48.65
42.17
37.44
36.16
39.19
46.08
54.81
62.50
66.58
65.87
61.14
54.57
48.64
44.89
43.29
42.65
41.41
38.61
34.05
27.82
19.70
8.76
-5.87
-24.07
-43.92
-61.78
-73.41
-75.74
-68.17
-52.93
-34.14
-16.13
-1.81
8.09
14.68
20.08
26.13
34.09
44.51
57.43
72.49
88.71
104.18
116.24
121.98
119.24
107.37
87.74
63.30
37.74
14.37
-4.80
-19.31
-30.09
-38.87
-47.36
-56.80
-67.56
-79.14
-90.38
-99.86
-106.39
-109.35
-108.93
-105.88
-101.26
-95.99
-90.53
-85.02
-79.42
-73.86
-68.67
-64.16
-60.30
-56.53
-51.87
-45.33
-36.33
-24.98
-12.02
1.54
14.81
27.30
38.84
49.41
58.75
66.13
70.35
70.10
64.45
53.23
37.25
18.10
-2.13
-21.23
-37.30
-48.83
-54.99
-55.67
-51.40
-43.36
-32.96
-21.55
-10.18
0.42
9.62
16.58
20.17
19.10
12.43
0.09
-16.52
-34.80
-51.35
-63.06
-68.30
-67.47
-63.13
-58.81
-57.75
-61.35
-68.76
-77.18
-82.89
-82.27
-72.43
-51.72
-20.50
18.09
57.94
91.12
110.70
113.65
102.46
84.10
66.66
55.64
51.72
51.46
50.11
44.67
35.27
24.29
14.38
6.57
0.05
-6.92
-15.82
-27.17
-40.44
-54.24
-66.86
-76.32
-80.86
-79.40
-72.00
-60.12
-46.32
-33.36
-23.35
-17.14
-14.32
-13.75
-14.11
-14.52
-14.67
-14.97
-16.16
-19.00
-23.65
-29.24
-33.85
-34.80
-29.39
-15.71
6.73
36.72
71.57
107.73
141.48
169.75
190.49
203.01
207.84
206.28
200.03
190.58
178.97
165.82
151.29
135.26
117.39
97.26
74.66
49.93
24.22
-0.79
-23.23
-41.52
-54.49
-61.32
-61.40
-54.52
-41.32
-23.77
-5.15
10.50
19.58
19.99
11.71
-3.17
-21.37
-39.28
-54.01
-63.82
-68.33
-68.23
-64.81
-59.35
-52.63
-44.95
-36.38
-27.11
-17.58
-8.07
1.51
11.48
21.93
31.94
39.53
42.27
38.39
27.96
12.99
-3.19
-17.29
-27.26
-32.81
-35.18
-36.31
-38.07
-41.61
-47.04
-53.43
-59.13
-62.53
-62.79
-60.29
-56.61
-53.93
-54.15
-58.30
-66.17
-76.38
-86.64
-94.11
-96.06
-90.61
-77.65
-59.19
-39.13
-21.89
-10.86
-7.06
-9.00
-13.67
-18.20
-21.16
-22.75
-24.12
-26.17
-28.53
-29.63
-27.39
-20.25
-8.00
8.07
25.62
42.05
55.41
64.86
70.63
73.62
74.77
74.60
73.08
69.85
64.57
57.30
48.43
38.52
28.19
17.87
8.00
-1.13
-9.37
-16.87
-24.04
-31.35
-38.83
-45.78
-50.73
-52.02
-48.39
-39.64
-26.73
-11.42
4.07
17.52
26.93
30.76
28.41
20.71
10.13
0.19
-5.75
-5.90
-0.88
6.73
13.64
17.72
19.01
19.34
20.99
24.87
29.73
32.52
29.96
20.10
3.35
-17.62
-38.84
-56.20
-66.27
-66.74
-56.57
-36.52
-9.64
18.67
41.42
52.02
46.58
25.77
-5.17
-38.25
-65.66
-82.40
-87.44
-83.01
-72.72
-59.67
-45.58
-31.14
-16.84
-3.61
7.35
15.18
20.06
23.23
26.54
31.37
37.99
45.41
52.01
56.41
58.26
58.31
58.22
59.65
63.65
70.20
78.18
85.94
91.87
95.07
95.56
94.11
91.77
89.41
87.38
85.40
82.62
77.94
70.31
59.20
45.03
29.38
14.73
3.52
-2.81
-4.66
-4.18
-4.43
-8.10
-16.60
-29.75
-46.35
-65.11
-85.27
-106.58
-128.83
-151.23
-172.14
-189.45
-201.15
-206.20
-204.82
-198.19
-187.84
-174.78
-159.04
-139.86
-116.56
-89.47
-60.56
-33.14
-10.72
4.26
11.42
12.52
10.57
8.69
9.20
13.29
21.25
32.89
47.77
65.28
84.55
104.62
124.44
143.13
159.95
174.11
184.73
190.65
190.70
184.10
171.02
152.70
131.44
110.15
91.64
78.01
70.22
67.93
69.72
73.59
77.47
79.85
79.95
77.78
73.92
69.09
63.90
58.61
53.28
47.95
42.95
38.87
36.12
34.34
32.01
26.70
15.98
-1.52
-25.24
-52.85
-81.04
-106.81
-128.21
-144.58
-155.90
-162.25
-163.42
-159.18
-149.80
-136.41
-120.82
-105.07
-90.82
-79.02
-70.04
-63.82
-60.22
-59.01
-59.78
-61.84
-64.44
-67.06
-69.68
-72.76
-76.76
-81.54
-85.94
-87.71
-84.37
-74.19
-57.12
-35.21
-12.04
8.51
23.57
32.25
35.62
35.97
35.58
35.72
36.37
36.63
35.56
32.81
28.97
25.22
22.69
22.04
23.15
25.38
27.96
30.45
32.96
35.99
40.03
45.15
50.73
55.60
58.42
58.34
55.31
50.18
44.48
39.96
38.25
40.52
47.21
57.83
70.83
83.70
93.44
97.36
93.87
83.10
67.00
48.80
32.23
20.55
15.76
18.29
26.87
38.96
51.37
60.99
65.52
63.89
56.22
43.64
27.71
10.05
-7.86
-24.71
-39.12
-49.73
-55.29
-55.19
-49.83
-40.79
-30.49
-21.53
-15.83
-14.02
-15.39
-18.30
-21.14
-23.00
-23.93
-24.67
-25.98
-28.12
-30.65
-32.67
-33.44
-32.74
-30.90
-28.60
-26.44
-24.72
-23.46
-22.43
-21.45
-20.46
-19.56
-18.90
-18.70
-19.09
-20.07
-21.52
-23.14
-24.60
-25.69
-26.44
-27.15
-28.29
-30.30
-33.33
-37.12
-41.07
-44.42
-46.50
-46.90
-45.46
-42.31
-37.64
-31.69
-24.78
-17.24
-9.54
-2.12
4.55
10.08
14.12
16.41
16.85
15.54
12.84
9.26
5.32
1.32
-2.71
-6.91
-11.40
-16.12
-20.79
-24.94
-28.22
-30.42
-31.53
-31.69
-31.03
-29.69
-27.73
-25.16
-21.99
-18.34
-14.49
-10.93
-8.22
-6.76
-6.64
-7.46
-8.58
-9.39
-9.67
-9.71
-10.17
-11.69
-14.55
-18.37
-22.14
-24.52
-24.21
-20.34
-12.74
-1.94
10.85
24.02
35.73
44.29
48.39
47.45
41.84
33.03
23.38
15.63
12.02
13.45
19.08
26.53
32.75
35.22
32.76
25.87
16.23
5.74
-4.33
-13.74
-22.97
-32.53
-42.24
-51.13
-57.82
-61.13
-60.80
-57.65
-53.26
-49.31
-46.94
-46.33
-46.88
-47.60
-47.42
-45.64
-42.02
-36.84
-30.87
-25.18
-20.86
-18.59
-18.39
-19.46
-20.55
-20.24
-17.45
-11.65
-2.88
8.35
21.14
34.23
46.09
54.95
59.40
58.81
53.62
45.25
35.40
25.41
15.81
6.50
-2.68
-11.45
-18.90
-23.91
-25.84
-24.96
-22.42
-19.59
-17.28
-15.40
-13.14
-9.81
-5.49
-1.31
0.90
-0.56
-6.38
-15.78
-26.70
-36.48
-43.01
-45.56
-44.90
-42.92
-41.52
-41.68
-42.94
-43.66
-41.85
-35.92
-25.29
-10.32
7.98
28.25
48.94
68.31
84.58
96.18
102.28
103.36
101.43
99.52
100.54
105.81
114.18
122.25
125.78
121.66
109.32
91.13
71.06
52.84
38.28
26.84
16.51
5.28
-7.53
-21.02
-33.33
-42.73
-48.50
-51.13
-52.03
-52.80
-54.63
-58.05
-63.14
-69.83
-78.18
-88.11
-99.18
-110.20
-119.37
-124.82
-125.11
-119.77
-109.15
-94.29
-76.49
-57.02
-37.14
-18.12
-1.25
12.20
21.13
24.78
22.95
16.23
6.09
-5.15
-14.80
-20.56
-21.47
-18.33
-13.50
-9.88
-9.58
-13.11
-19.14
-25.10
-28.43
-27.63
-23.09
-16.69
-11.00
-7.99
-8.26
-11.11
-15.19
-19.48
-23.72
-28.14
-32.83
-37.00
-39.01
-37.05
-30.17
-18.98
-5.51
7.70
18.79
27.33
34.23
41.01
48.85
58.06
67.96
77.26
84.67
89.35
91.09
90.32
87.77
84.13
79.71
74.38
67.79
59.76
50.63
41.13
32.13
23.91
15.84
6.55
-5.50
-21.14
-39.93
-60.17
-79.51
-95.87
-107.95
-115.59
-119.38
-120.33
-119.42
-117.30
-114.23
-110.07
-104.30
-96.24
-85.14
-70.51
-52.31
-31.21
-8.47
14.22
35.19
53.33
68.27
80.33
89.98
97.23
101.40
101.36
96.27
86.35
73.23
59.40
47.35
38.53
32.97
29.51
26.75
23.69
20.08
16.15
12.03
7.52
2.01
-4.89
-13.03
-21.51
-28.95
-34.10
-36.42
-36.42
-35.63
-36.11
-39.68
-47.19
-57.96
-69.88
-79.91
-85.15
-83.75
-75.48
-61.68
-44.66
-26.90
-10.47
3.21
13.25
19.17
20.73
18.11
11.88
3.16
-6.59
-15.91
-23.55
-28.82
-31.54
-32.00
-30.75
-28.30
-25.07
-21.26
-17.05
-12.56
-7.99
-3.62
0.39
3.92
7.10
10.19
13.49
17.15
21.06
24.77
27.54
28.58
27.29
23.63
18.10
11.85
6.43
3.44
4.15
9.15
18.11
29.78
42.25
53.42
61.54
65.75
66.13
63.53
59.15
54.07
49.08
44.71
41.39
39.50
39.41
41.31
45.05
50.13
55.64
60.45
63.38
63.45
60.06
53.25
43.69
32.60
21.49
11.87
4.74
0.45
-1.44
-2.03
-2.71
-4.86
-9.25
-15.82
-23.57
-30.87
-36.06
-38.02
-36.51
-32.06
-25.60
-17.99
-9.80
-1.47
6.58
13.70
19.20
22.65
24.19
24.48
24.50
25.10
26.67
29.20
32.47
36.31
40.66
45.54
50.74
55.77
59.84
62.09
61.92
59.19
54.30
48.11
41.61
35.72
30.97
27.51
25.17
23.63
22.41
21.01
18.82
15.29
10.31
4.44
-0.98
-4.22
-3.82
0.79
9.00
19.11
29.08
37.10
42.11
43.78
42.36
38.37
32.37
25.00
16.93
8.94
1.79
-3.96
-7.98
-10.38
-11.58
-12.14
-12.60
-13.28
-14.25
-15.37
-16.53
-17.71
-19.06
-20.82
-23.03
-25.56
-28.06
-30.08
-31.28
-31.64
-31.40
-31.06
-31.20
-32.21
-34.11
-36.37
-37.95
-37.53
-33.99
-26.80
-16.32
-3.71
9.47
21.71
31.95
39.66
44.80
47.51
48.11
47.02
44.87
42.46
40.68
40.23
41.48
44.32
48.24
52.52
56.42
59.46
61.50
62.72
63.41
63.77
63.78
63.17
61.61
58.99
55.59
52.00
48.89
46.70
45.37
44.42
43.09
40.72
36.86
31.41
24.67
17.32
10.50
5.56
3.70
5.49
10.47
17.12
23.26
26.73
26.05
20.82
11.69
-0.01
-12.75
-25.24
-36.65
-46.53
-54.76
-61.22
-65.74
-68.08
-68.12
-66.03
-62.35
-57.87
-53.39
-49.40
-46.03
-43.10
-40.32
-37.61
-35.13
-33.17
-32.04
-31.86
-32.46
-33.52
-34.56
-35.14
-34.95
-33.83
-31.79
-29.04
-25.95
-23.04
-20.95
-20.17
-20.86
-22.57
-24.30
-24.76
-22.83
-18.03
-10.72
-1.95
6.86
14.51
20.23
23.78
25.29
24.95
22.98
19.53
14.91
9.59
4.28
-0.22
-3.21
-4.28
-3.44
-1.08
2.15
5.54
8.57
10.92
12.52
13.43
13.77
13.66
13.21
12.50
11.60
10.55
9.33
7.81
5.88
3.47
0.61
-2.49
-5.55
-8.31
-10.60
-12.46
-14.05
-15.66
-17.52
-19.64
-21.66
-22.81
-22.06
-18.50
-11.66
-1.85
9.87
22.00
32.96
41.65
47.55
50.70
51.50
50.39
47.75
43.94
39.40
34.69
30.46
27.27
25.35
24.55
24.37
24.15
23.29
21.47
18.70
15.20
11.25
6.97
2.33
-2.83
-8.64
-15.03
-21.69
-28.16
-33.96
-38.74
-42.48
-45.35
-47.76
-50.10
-52.68
-55.69
-59.21
-63.20
-67.45
-71.51
-74.63
-75.92
-74.56
-70.09
-62.62
-52.87
-41.98
-31.17
-21.40
-13.11
-6.21
-0.28
5.18
10.45
15.53
20.20
24.24
27.58
30.39
32.92
35.32
37.54
39.32
40.44
40.83
40.68
40.29
39.92
39.63
39.25
38.52
37.22
35.27
32.76
29.87
26.81
23.74
20.80
18.12
15.81
13.89
12.26
10.67
8.79
6.30
3.10
-0.70
-4.71
-8.41
-11.22
-12.68
-12.50
-10.63
-7.18
-2.34
3.60
10.23
16.90
22.80
26.99
28.71
27.68
24.24
19.24
13.69
8.39
3.74
-0.22
-3.57
-6.22
-7.87
-8.20
-7.09
-4.86
-2.15
0.16
1.31
0.82
-1.42
-5.14
-9.87
-15.01
-20.01
-24.40
-27.82
-30.13
-31.35
-31.75
-31.82
-32.13
-33.11
-34.83
-36.87
-38.46
-38.78
-37.22
-33.60
-28.21
-21.55
-14.16
-6.43
1.36
8.96
16.08
22.32
27.30
30.78
32.77
33.56
33.59
33.34
33.11
33.08
33.30
33.78
34.66
36.18
38.57
41.94
46.09
50.50
54.51
57.47
58.98
58.95
57.54
55.00
51.55
47.29
42.26
36.41
29.70
22.08
13.47
3.87
-6.54
-17.17
-26.97
-34.53
-38.49
-38.03
-33.21
-25.05
-15.21
-5.42
3.03
9.48
13.75
15.83
15.58
12.82
7.54
0.23
-8.09
-16.20
-23.02
-28.08
-31.51
-33.74
-35.15
-35.76
-35.24
-33.25
-29.75
-25.14
-20.19
-15.70
-12.19
-9.78
-8.22
-7.06
-6.04
-5.16
-4.66
-4.88
-5.99
-7.87
-10.08
-12.01
-12.99
-12.53
-10.43
-6.79
-1.97
3.47
8.95
13.84
17.60
19.72
19.80
17.67
13.48
7.82
1.68
-3.80
-7.65
-9.28
-8.69
-6.35
-2.99
0.62
3.87
6.41
8.06
8.78
8.71
8.07
7.16
6.23
5.41
4.69
3.94
3.08
2.15
1.36
1.02
1.54
3.33
6.59
11.29
17.10
23.41
29.56
34.92
39.03
41.64
42.66
42.15
40.28
37.42
34.11
31.02
28.72
27.64
27.83
29.00
30.49
31.36
30.69
27.72
22.12
14.08
4.26
-6.40
-17.01
-26.93
-35.84
-43.68
-50.47
-56.23
-60.92
-64.54
-67.15
-68.80
-69.46
-68.94
-66.96
-63.29
-57.98
-51.41
-44.29
-37.45
-31.63
-27.25
-24.42
-22.96
-22.53
-22.81
-23.56
-24.67
-26.09
-27.70
-29.20
-30.15
-30.08
-28.77
-26.36
-23.50
-21.01
-19.62
-19.60
-20.60
-21.88
-22.65
-22.49
-21.49
-20.21
-19.33
-19.33
-20.29
-21.96
-23.95
-25.99
-27.93
-29.75
-31.28
-32.17
-31.96
-30.30
-27.25
-23.32
-19.26
-15.77
-13.15
-11.28
-9.88
-8.74
-8.05
-8.24
-9.75
-12.67
-16.49
-20.26
-22.83
-23.40
-21.70
-18.13
-13.52
-8.76
-4.52
-1.03
1.83
4.36
6.78
9.03
10.90
12.05
12.27
11.50
9.83
7.52
4.90
2.48
0.93
1.03
3.34
8.02
14.60
22.05
29.19
35.08
39.29
41.96
43.49
44.27
44.48
44.01
42.67
40.37
37.39
34.32
31.93
30.87
31.35
33.15
35.69
38.40
40.99
43.55
46.39
49.70
53.39
57.22
60.99
64.74
68.53
71.92
73.60
71.50
63.68
49.43
30.19
9.43
-8.53
-20.16
-24.13
-21.58
-15.22
-7.92
-1.39
3.95
8.43
12.14
14.32
13.67
9.13
0.72
-10.18
-21.40
-31.00
-38.25
-43.83
-49.26
-55.82
-63.63
-71.52
-77.51
-79.81
-77.70
-71.81
-63.87
-55.94
-49.65
-45.70
-43.82
-43.07
-42.41
-41.17
-39.37
-37.55
-36.60
-37.16
-39.45
-43.03
-47.08
-50.65
-52.96
-53.56
-52.30
-49.23
-44.56
-38.63
-32.03
-25.48
-19.72
-15.35
-12.51
-11.07
-10.60
-10.66
-10.85
-10.86
-10.42
-9.42
-7.84
-5.91
-3.95
-2.35
-1.31
-0.80
-0.54
-0.17
0.52
1.45
2.30
2.62
2.05
0.57
-1.53
-3.76
-5.62
-6.80
-7.31
-7.40
-7.50
-7.97
-8.96
-10.43
-12.23
-14.14
-15.89
-17.15
-17.50
-16.55
-14.03
-10.02
-4.98
0.29
4.92
8.18
9.75
9.70
8.49
6.75
5.06
3.83
3.23
3.24
3.75
4.56
5.56
6.62
7.56
8.22
8.44
8.21
7.66
7.10
6.80
6.89
7.26
7.52
7.26
6.20
4.37
2.11
-0.07
-1.76
-2.77
-3.25
-3.61
-4.41
-6.09
-8.89
-12.62
-16.67
-20.17
-22.13
-21.84
-19.06
-14.12
-7.86
-1.28
4.76
9.74
13.48
16.09
17.79
18.84
19.48
19.96
20.46
21.09
21.76
22.33
22.61
22.61
22.54
22.79
23.69
25.35
27.56
29.89
31.88
33.26
34.04
34.49
34.97
35.77
36.93
38.23
39.37
40.12
40.51
40.89
41.79
43.72
46.90
51.16
56.02
60.85
65.10
68.55
71.25
73.56
75.94
78.94
83.09
88.83
96.23
104.76
112.98
118.69
119.46
113.37
99.76
79.58
55.11
29.21
4.56
-17.04
-34.72
-48.27
-57.71
-63.00
-63.97
-60.62
-53.43
-43.63
-33.06
-23.77
-17.39
-14.62
-15.09
-17.68
-21.15
-24.71
-28.27
-32.19
-36.77
-41.82
-46.55
-49.86
-50.89
-49.48
-46.16
-41.93
-37.78
-34.21
-31.22
-28.53
-25.86
-23.26
-21.18
-20.20
-20.78
-23.10
-26.92
-31.75
-36.82
-41.20
-43.85
-43.86
-40.73
-34.59
-26.29
-17.18
-8.62
-1.59
3.65
7.44
10.44
13.22
15.88
18.08
19.30
19.10
17.47
14.86
11.90
9.16
6.82
4.70
2.55
0.35
-1.57
-2.67
-2.60
-1.52
-0.09
0.76
0.21
-2.14
-6.33
-12.17
-19.50
-28.18
-37.99
-48.39
-58.46
-67.12
-73.50
-77.22
-78.58
-78.26
-77.09
-75.76
-74.68
-73.93
-73.39
-72.71
-71.38
-68.80
-64.40
-57.86
-49.22
-38.91
-27.59
-16.01
-4.76
5.74
15.17
23.33
29.98
35.01
38.54
40.99
43.08
45.63
49.28
54.14
59.78
65.28
69.55
71.72
71.31
68.43
63.61
57.57
51.01
44.44
38.12
32.07
26.18
20.28
14.31
8.33
2.56
-2.72
-7.25
-10.87
-13.57
-15.50
-16.87
-17.76
-18.02
-17.15
-14.45
-9.17
-0.76
10.87
25.46
42.30
60.50
79.05
96.89
112.93
126.09
135.42
140.26
140.45
136.36
128.72
118.40
106.25
92.95
79.13
65.41
52.36
40.39
29.49
19.19
8.70
-2.67
-15.11
-28.16
-40.86
-52.17
-61.37
-68.25
-73.05
-76.15
-77.97
-78.84
-79.02
-78.83
-78.45
-77.92
-77.09
-75.69
-73.57
-70.88
-68.04
-65.60
-63.85
-62.62
-61.14
-58.28
-52.81
-43.85
-31.25
-15.82
0.79
16.50
29.60
39.53
47.17
54.66
64.42
77.94
94.96
113.41
130.19
142.49
148.82
149.43
145.98
140.61
135.19
130.79
127.72
125.75
124.38
123.00
121.02
118.03
114.04
109.30
103.97
97.35
87.55
71.83
47.85
15.14
-24.17
-65.79
-104.99
-138.34
-164.62
-184.41
-198.68
-207.70
-210.88
-207.55
-198.08
-184.25
-168.78
-154.16
-141.71
-131.56
-123.09
-115.87
-110.01
-106.05
-104.43
-105.08
-107.37
-110.30
-112.92
-114.60
-115.11
-114.70
-113.90
-113.35
-113.45
-114.01
-114.19
-112.63
-107.90
-99.15
-86.54
-71.41
-55.82
-41.83
-30.73
-22.52
-15.92
-8.81
1.01
15.14
34.03
56.84
81.78
106.59
129.35
148.94
165.34
179.47
192.66
205.94
219.25
231.18
239.14
240.03
231.24
211.41
180.77
141.06
95.09
46.27
-1.93
-46.21
-83.90
-113.38
-134.55
-148.99
-159.50
-168.99
-179.27
-190.20
-199.82
-205.42
-204.96
-198.00
-185.72
-170.03
-152.46
-133.62
-113.45
-92.16
-70.80
-51.35
-35.71
-24.75
-17.65
-12.25
-6.03
2.73
14.33
27.98
42.32
56.37
69.75
82.65
95.31
107.48
118.25
126.26
130.30
129.93
125.81
119.62
113.41
108.93
106.94
107.16
108.61
110.21
111.32
111.88
112.18
112.54
113.09
113.75
114.48
115.30
116.16
116.74
116.19
113.14
106.12
94.13
76.98
55.57
31.56
6.98
-16.29
-36.86
-54.04
-67.81
-78.76
-87.77
-95.78
-103.32
-110.42
-116.46
-120.39
-121.24
-118.45
-112.26
-103.67
-94.13
-85.12
-77.63
-72.06
-68.20
-65.43
-63.11
-60.66
-57.77
-54.32
-50.38
-46.12
-41.79
-37.73
-34.18
-31.32
-29.09
-27.23
-25.40
-23.41
-21.41
-19.95
-19.80
-21.75
-26.04
-32.26
-39.19
-45.03
-47.91
-46.31
-39.71
-28.69
-14.97
-0.87
11.38
20.19
25.02
26.32
25.12
22.53
19.25
15.51
11.08
5.69
-0.69
-7.77
-14.88
-21.27
-26.26
-29.39
-30.52
-29.92
-28.19
-26.29
-25.27
-26.17
-29.53
-35.33
-42.77
-50.50
-57.17
-61.87
-64.61
-66.20
-67.83
-70.31
-73.44
-75.82
-75.23
-69.56
-57.72
-40.07
-18.40
4.90
27.50
47.68
64.45
77.27
86.07
91.21
93.66
94.83
96.21
98.73
102.35
106.00
108.04
106.82
101.32
91.21
76.83
59.09
39.41
19.71
2.18
-11.14
-19.05
-21.63
-20.26
-17.12
-14.37
-13.42
-14.68
-17.66
-21.68
-26.32
-31.75
-38.53
-46.96
-56.79
-66.74
-74.93
-79.40
-78.96
-73.59
-64.55
-53.78
-43.20
-34.05
-26.70
-20.78
-15.83
-11.50
-7.79
-4.85
-2.69
-1.13
0.21
1.68
3.41
5.23
6.81
7.75
7.75
6.67
4.62
1.92
-0.84
-3.03
-4.18
-4.12
-3.24
-2.33
-2.34
-4.01
-7.59
-12.84
-19.14
-25.70
-31.62
-35.98
-37.90
-36.59
-31.72
-23.55
-13.01
-1.57
9.28
18.30
24.82
28.77
30.58
30.93
30.53
29.95
29.52
29.26
28.99
28.35
27.17
25.54
23.87
22.77
22.57
23.31
24.49
25.39
25.33
24.00
21.46
18.10
14.37
10.59
6.75
2.67
-1.91
-7.18
-13.19
-19.85
-26.83
-33.53
-39.08
-42.43
-42.60
-38.99
-31.65
-21.36
-9.48
2.45
13.02
21.24
26.77
29.82
30.90
30.74
29.81
28.43
26.68
24.58
22.24
19.93
18.01
16.75
16.28
16.54
17.23
18.01
18.51
18.44
17.62
15.95
13.45
10.20
6.34
2.06
-2.45
-7.02
-11.51
-15.93
-20.43
-25.26
-30.45
-35.79
-40.53
-43.52
-43.64
-40.11
-33.02
-23.31
-12.54
-2.32
6.21
12.67
17.31
20.75
23.50
25.70
27.14
27.47
26.55
24.61
22.30
20.41
19.55
19.91
21.12
22.50
23.32
23.09
21.76
19.66
17.27
14.93
12.74
10.46
7.78
4.48
0.58
-3.71
-8.25
-12.98
-17.95
-23.02
-27.61
-30.63
-30.81
-27.20
-19.69
-9.18
2.61
13.81
22.95
29.36
33.15
34.81
34.94
33.93
32.03
29.56
26.92
24.70
23.39
23.31
24.38
26.22
28.27
29.91
30.76
30.65
29.66
28.08
26.15
24.01
21.67
19.04
16.09
12.92
9.70
6.53
3.24
-0.56
-5.36
-11.33
-17.99
-24.18
-28.32
-29.04
-25.72
-18.81
-9.66
0.01
8.67
15.43
20.07
22.90
24.37
24.92
24.80
24.21
23.40
22.68
22.33
22.62
23.51
24.75
25.92
26.67
26.93
26.86
26.81
27.01
27.41
27.66
27.08
25.17
21.62
16.64
10.82
4.81
-0.83
-5.95
-10.76
-15.65
-20.89
-26.39
-31.53
-35.32
-36.59
-34.55
-29.02
-20.61
-10.51
-0.11
9.30
17.00
22.62
26.23
27.96
28.03
26.71
24.44
21.74
19.25
17.50
16.81
17.16
18.36
20.00
21.68
23.08
23.95
24.22
23.85
22.92
21.47
19.59
17.30
14.61
11.58
8.36
5.13
2.13
-0.53
-2.80
-4.75
-6.51
-8.15
-9.90
-11.94
-14.46
-17.49
-20.66
-23.13
-23.80
-21.64
-16.20
-7.82
2.31
12.66
21.75
28.68
33.16
35.33
35.60
34.32
31.81
28.45
24.73
21.27
18.69
17.38
17.31
18.05
18.93
19.27
18.76
17.49
15.89
14.46
13.43
12.69
11.87
10.61
8.74
6.46
4.19
2.35
1.10
0.30
-0.58
-2.07
-4.68
-8.55
-13.38
-18.56
-23.12
-26.08
-26.60
-24.24
-19.07
-11.69
-3.12
5.47
13.00
18.67
22.19
23.60
23.29
21.80
19.66
17.37
15.20
13.35
11.90
10.90
10.43
10.56
11.27
12.42
13.73
14.88
15.49
15.38
14.48
12.93
11.03
8.98
6.90
4.72
2.29
-0.56
-3.83
-7.32
-10.70
-13.64
-15.99
-17.86
-19.53
-21.37
-23.62
-26.39
-29.58
-32.93
-36.09
-38.50
-39.54
-38.62
-35.32
-29.61
-21.98
-13.38
-4.90
2.45
8.02
11.61
13.36
13.69
13.09
12.05
10.97
10.15
9.73
9.74
10.11
10.75
11.63
12.69
13.89
15.07
16.00
16.46
16.37
15.84
15.10
14.40
13.78
13.12
12.17
10.73
8.78
6.45
3.98
1.52
-0.91
-3.42
-6.14
-9.03
-11.95
-14.67
-17.02
-19.09
-21.18
-23.76
-27.16
-31.27
-35.39
-38.43
-39.24
-37.10
-32.03
-24.84
-16.82
-9.31
-3.21
1.14
3.84
5.24
5.59
5.04
3.64
1.57
-0.78
-2.82
-3.96
-3.86
-2.51
-0.28
2.20
4.43
6.11
7.22
8.06
8.74
9.27
9.30
8.42
6.34
3.15
-0.62
-4.22
-6.97
-8.55
-9.19
-9.54
-10.42
-12.47
-15.79
-20.01
-24.29
-27.65
-29.21
-28.40
-25.12
-19.67
-12.73
-5.20
1.98
7.98
12.29
14.62
15.11
14.02
11.79
9.02
6.27
4.12
2.96
2.87
3.61
4.73
5.68
6.09
5.88
5.22
4.34
3.49
2.69
1.87
0.96
-0.13
-1.46
-3.07
-5.07
-7.53
-10.32
-13.14
-15.47
-16.83
-17.07
-16.51
-15.89
-16.06
-17.42
-19.67
-21.71
-22.03
-19.41
-13.40
-4.59
5.65
15.65
24.11
30.32
34.19
36.01
36.11
34.65
31.78
27.75
23.07
18.53
14.93
12.81
12.17
12.54
13.24
13.67
13.59
13.10
12.51
12.06
11.75
11.30
10.29
8.36
5.39
1.54
-2.79
-7.17
-11.17
-14.51
-17.03
-18.68
-19.54
-19.80
-19.79
-19.95
-20.66
-22.18
-24.46
-26.99
-28.98
-29.42
-27.60
-23.21
-16.68
-8.93
-1.17
5.57
10.63
13.82
15.35
15.54
14.70
13.06
10.78
8.11
5.30
2.65
0.47
-1.12
-2.08
-2.53
-2.61
-2.43
-1.98
-1.23
-0.09
1.37
2.92
4.12
4.47
3.58
1.44
-1.61
-5.02
-8.22
-10.91
-13.21
-15.53
-18.30
-21.72
-25.50
-28.92
-31.08
-31.15
-28.68
-23.78
-17.03
-9.26
-1.42
5.69
11.39
15.17
16.74
16.13
13.66
10.02
6.05
2.55
0.00
-1.44
-1.95
-1.77
-1.15
-0.22
0.99
2.39
3.86
5.13
5.94
6.04
5.27
3.62
1.26
-1.49
-4.21
-6.56
-8.36
-9.62
-10.51
-11.23
-12.01
-12.99
-14.46
-16.73
-20.01
-24.27
-28.85
-32.69
-34.52
-33.33
-28.91
-21.90
-13.57
-5.40
1.46
6.50
9.78
11.66
12.54
12.56
11.80
10.35
8.50
6.79
5.79
5.88
7.12
9.14
11.42
13.36
14.65
15.14
14.94
14.18
12.94
11.25
9.05
6.32
3.14
-0.29
-3.67
-6.67
-9.06
-10.79
-12.07
-13.25
-14.74
-16.81
-19.51
-22.71
-25.96
-28.69
-30.19
-29.70
-26.59
-20.57
-11.81
-1.11
10.34
21.10
30.02
36.34
39.94
41.21
40.85
39.61
38.00
36.33
34.66
32.96
31.25
29.66
28.33
27.39
26.84
26.52
26.23
25.84
25.27
24.59
23.84
22.84
21.25
18.65
14.78
9.78
4.28
-0.82
-4.69
-6.92
-7.67
-7.59
-7.53
-8.21
-9.98
-12.77
-16.10
-19.19
-21.23
-21.43
-19.20
-14.31
-6.89
2.57
13.35
24.58
35.47
45.33
53.55
59.67
63.39
64.54
63.25
59.85
54.82
48.64
41.73
34.45
27.13
20.20
14.15
9.45
6.39
5.00
5.03
5.98
7.31
8.37
8.52
7.18
3.91
-1.34
-8.18
-15.71
-22.77
-28.31
-31.83
-33.58
-34.52
-35.83
-38.36
-42.23
-46.69
-50.60
-52.89
-53.17
-51.74
-49.34
-46.68
-44.01
-41.21
-37.97
-34.21
-30.25
-26.67
-24.05
-22.63
-22.36
-22.85
-23.62
-24.23
-24.27
-23.52
-21.85
-19.20
-15.62
-11.13
-5.78
0.32
6.96
13.93
21.08
28.40
36.05
44.06
52.13
59.41
64.50
65.91
62.42
53.57
39.67
21.76
1.28
-20.01
-40.29
-57.71
-70.76
-78.49
-80.87
-78.71
-73.43
-66.59
-59.41
-52.70
-46.84
-41.98
-38.21
-35.51
-33.70
-32.38
-31.00
-29.08
-26.35
-22.92
-19.08
-15.26
-11.74
-8.63
-5.92
-3.57
-1.63
-0.16
0.82
1.52
2.34
3.75
6.07
9.29
12.97
16.42
18.86
19.79
18.96
16.36
12.15
6.39
-0.73
-8.80
-17.00
-24.16
-29.10
-31.05
-29.96
-26.49
-21.70
-16.56
-11.61
-6.96
-2.35
2.43
7.32
11.99
15.95
18.81
20.51
21.37
21.92
22.77
24.30
26.63
29.54
32.73
35.90
39.00
42.12
45.37
48.81
52.18
55.09
57.07
57.86
57.52
56.43
55.07
53.81
52.62
51.07
48.39
43.99
37.73
30.24
22.90
17.42
15.38
17.63
24.09
33.78
45.12
56.47
66.53
74.62
80.71
85.09
88.19
90.13
90.75
89.54
85.81
79.00
68.71
54.92
38.05
19.16
-0.23
-18.14
-32.63
-42.19
-46.09
-44.63
-38.97
-30.88
-22.24
-14.71
-9.38
-6.68
-6.41
-7.83
-9.72
-10.52
-8.54
-2.27
9.20
25.71
45.84
67.00
86.04
100.11
107.54
108.10
102.85
93.49
81.55
68.01
53.36
37.96
22.43
7.78
-5.01
-15.27
-23.08
-29.14
-34.41
-39.59
-44.72
-49.32
-52.60
-54.04
-53.71
-52.37
-51.25
-51.51
-53.85
-58.20
-63.76
-69.38
-74.03
-77.13
-78.78
-79.68
-80.78
-83.02
-87.03
-92.96
-100.41
-108.31
-114.98
-118.36
-116.57
-108.57
-94.84
-77.44
-59.52
-44.23
-33.65
-28.06
-26.07
-25.47
-24.26
-21.48
-17.31
-12.71
-8.64
-5.54
-3.35
-1.63
-0.13
1.10
1.71
1.36
-0.01
-2.11
-4.49
-6.78
-8.95
-11.26
-14.20
-18.11
-23.00
-28.57
-34.26
-39.59
-44.47
-49.14
-54.02
-59.30
-64.51
-68.51
-69.76
-66.97
-59.69
-48.54
-34.96
-20.70
-7.10
5.12
15.88
25.26
33.18
39.22
42.86
43.81
42.30
39.18
35.58
32.58
30.76
30.22
30.61
31.43
32.24
32.59
32.16
30.77
28.48
25.77
23.47
22.40
23.09
25.49
29.04
33.02
36.86
40.28
43.22
45.55
47.02
47.39
46.71
45.53
44.63
44.67
45.80
47.42
48.51
48.08
45.72
41.77
37.19
33.07
30.11
28.39
27.45
26.65
25.58
24.24
22.87
21.65
20.57
19.22
17.12
13.90
9.48
4.15
-1.65
-7.47
-13.01
-18.13
-22.75
-26.87
-30.50
-33.69
-36.54
-39.16
-41.62
-44.00
-46.26
-48.29
-49.98
-51.16
-51.68
-51.36
-50.04
-47.49
-43.48
-37.86
-30.68
-22.36
-13.61
-5.39
1.52
6.63
9.98
12.02
13.29
14.23
15.00
15.57
15.82
15.81
15.75
15.83
16.19
16.73
17.25
17.43
17.02
15.81
13.68
10.63
6.85
2.64
-1.58
-5.41
-8.66
-11.39
-13.93
-16.64
-19.76
-23.31
-27.02
-30.43
-33.07
-34.48
-34.42
-32.89
-30.08
-26.42
-22.37
-18.39
-14.88
-12.08
-10.13
-9.05
-8.75
-9.09
-9.86
-10.78
-11.56
-11.92
-11.62
-10.63
-9.09
-7.34
-5.78
-4.68
-4.15
-4.10
-4.47
-5.24
-6.51
-8.35
-10.64
-13.05
-15.16
-16.74
-17.88
-19.02
-20.69
-23.20
-26.48
-30.22
-34.05
-37.74
-41.22
-44.33
-46.70
-47.62
-46.28
-41.99
-34.59
-24.60
-13.16
-1.73
8.32
15.97
20.88
23.24
23.59
22.62
20.85
18.64
16.28
14.02
12.10
10.67
9.69
8.94
8.24
7.53
6.95
6.72
6.96
7.46
7.80
7.40
5.83
2.87
-1.37
-6.59
-12.36
-18.30
-24.13
-29.77
-35.28
-40.76
-46.09
-50.84
-54.21
-55.36
-53.80
-49.56
-43.31
-36.03
-28.66
-21.84
-15.79
-10.51
-5.98
-2.28
0.45
2.15
2.94
3.19
3.41
4.06
5.39
7.36
9.69
12.00
14.03
15.77
17.43
19.26
21.43
23.79
25.92
27.36
27.72
26.90
25.00
22.27
18.94
15.18
11.07
6.68
2.09
-2.65
-7.47
-12.36
-17.22
-21.78
-25.51
-27.65
-27.44
-24.41
-18.66
-11.00
-2.67
4.92
10.75
14.39
16.07
16.47
16.38
16.34
16.61
17.12
17.64
17.99
18.03
17.77
17.25
16.50
15.47
14.04
12.12
9.66
6.80
3.76
0.83
-1.71
-3.70
-5.08
-5.97
-6.61
-7.35
-8.57
-10.49
-13.21
-16.65
-20.55
-24.61
-28.42
-31.53
-33.39
-33.49
-31.48
-27.40
-21.77
-15.46
-9.45
-4.52
-1.03
1.09
2.17
2.58
2.57
2.20
1.43
0.26
-1.16
-2.58
-3.67
-4.23
-4.22
-3.81
-3.29
-2.93
-2.92
-3.29
-3.94
-4.72
-5.44
-6.02
-6.40
-6.67
-7.02
-7.75
-9.17
-11.46
-14.67
-18.62
-22.94
-27.11
-30.47
-32.28
-31.87
-28.82
-23.18
-15.56
-7.06
1.04
7.65
12.16
14.63
15.51
15.49
15.10
14.58
13.90
12.89
11.47
9.69
7.81
6.31
5.83
7.10
10.79
17.28
26.43
37.51
49.29
60.34
69.38
75.50
78.34
78.00
74.84
69.37
62.14
53.67
44.47
34.95
25.48
16.31
7.62
-0.50
-8.01
-14.86
-20.90
-25.85
-29.32
-30.98
-30.80
-29.14
-26.74
-24.35
-22.50
-21.31
-20.53
-19.75
-18.55
-16.64
-13.81
-10.03
-5.41
-0.36
4.39
7.96
9.61
8.96
6.23
2.03
-2.88
-7.90
-12.73
-17.24
-21.43
-25.26
-28.63
-31.46
-33.80
-35.86
-37.95
-40.44
-43.52
-47.20
-51.17
-54.93
-57.86
-59.38
-59.06
-56.71
-52.35
-46.16
-38.48
-29.78
-20.67
-11.87
-4.06
2.19
6.63
9.22
10.22
10.02
9.09
7.93
7.01
6.71
7.27
8.71
10.85
13.35
15.79
17.75
18.90
19.00
17.88
15.57
12.23
8.22
4.01
0.07
-3.35
-6.22
-8.74
-11.28
-14.17
-17.73
-22.12
-27.20
-32.50
-37.10
-39.79
-39.45
-35.45
-27.97
-18.03
-7.13
3.30
12.25
19.38
24.76
28.59
30.98
31.91
31.39
29.72
27.49
25.45
24.26
24.22
25.13
26.46
27.59
28.14
28.07
27.67
27.26
26.99
26.74
26.17
24.90
22.75
19.80
16.34
12.71
9.12
5.59
1.89
-2.23
-7.01
-12.57
-18.83
-25.43
-31.72
-36.71
-39.24
-38.30
-33.36
-24.73
-13.50
-1.34
10.03
19.30
25.80
29.50
30.86
30.42
28.76
26.42
23.86
21.51
19.77
18.97
19.31
20.73
22.89
25.22
27.07
27.93
27.62
26.31
24.36
22.07
19.40
16.10
11.80
6.40
0.21
-6.08
-11.74
-16.25
-19.55
-22.05
-24.41
-27.29
-31.12
-35.93
-41.27
-46.23
-49.52
-49.83
-46.12
-38.09
-26.32
-12.24
2.28
15.41
25.88
33.12
37.16
38.45
37.50
34.88
31.13
26.91
22.90
19.69
17.71
17.03
17.42
18.45
19.62
20.51
20.88
20.64
19.84
18.48
16.54
13.89
10.42
6.17
1.43
-3.33
-7.58
-10.98
-13.51
-15.46
-17.33
-19.67
-22.97
-27.47
-33.12
-39.34
-45.04
-48.69
-48.76
-44.26
-35.15
-22.54
-8.32
5.40
16.93
25.36
30.54
32.81
32.69
30.65
27.18
22.87
18.47
14.78
12.50
11.93
12.95
15.06
17.63
20.17
22.38
24.24
25.77
26.95
27.61
27.41
26.05
23.39
19.53
14.81
9.70
4.68
0.02
-4.31
-8.71
-13.84
-20.37
-28.64
-38.24
-48.05
-56.27
-61.05
-61.03
-55.86
-46.29
-33.93
-20.70
-8.34
1.92
9.48
14.17
16.17
15.84
13.74
10.51
6.87
3.55
1.11
-0.04
0.16
1.49
3.48
5.49
6.97
7.57
7.29
6.30
4.90
3.23
1.19
-1.50
-5.06
-9.55
-14.61
-19.61
-23.76
-26.36
-27.00
-25.70
-22.91
-19.49
-16.47
-14.87
-15.34
-17.83
-21.52
-24.83
-25.88
-23.14
-16.01
-5.07
8.06
21.32
32.86
41.51
46.89
49.25
49.05
46.77
42.85
37.78
32.15
26.65
21.85
18.05
15.20
13.06
11.33
9.98
9.15
9.18
10.35
12.78
16.37
20.75
25.42
29.77
33.15
34.95
34.84
32.73
28.99
24.29
19.39
14.91
11.12
7.88
4.75
1.19
-3.35
-9.27
-16.66
-25.18
-33.97
-41.72
-46.90
-48.29
-45.34
-38.38
-28.58
-17.48
-6.59
3.00
10.73
16.41
20.05
21.70
21.49
19.69
16.82
13.53
10.56
8.50
7.67
8.07
9.45
11.43
13.67
15.85
17.70
18.97
19.34
18.52
16.34
12.82
8.28
3.24
-1.72
-6.16
-9.97
-13.30
-16.61
-20.46
-25.21
-30.94
-37.19
-43.00
-47.13
-48.39
-46.09
-40.30
-31.86
-22.15
-12.61
-4.44
1.69
5.59
7.38
7.34
5.79
3.11
-0.23
-3.67
-6.64
-8.62
-9.26
-8.44
-6.28
-3.13
0.52
4.19
7.50
10.24
12.36
13.89
14.79
14.96
14.23
12.61
10.25
7.55
4.99
2.90
1.33
0.04
-1.40
-3.42
-6.33
-10.16
-14.59
-18.93
-22.14
-23.06
-20.76
-14.91
-6.04
4.60
15.38
24.83
32.05
36.84
39.46
40.39
40.03
38.63
36.46
33.86
31.34
29.49
28.81
29.54
31.54
34.25
36.87
38.66
39.13
38.29
36.64
34.83
33.38
32.32
31.23
29.52
26.78
23.01
18.70
14.47
10.80
7.80
5.24
2.77
0.13
-2.77
-5.92
-9.38
-13.36
-18.01
-23.18
-28.20
-31.87
-32.83
-30.10
-23.54
-13.95
-2.88
7.97
17.35
24.64
29.83
33.26
35.21
35.84
35.22
33.55
31.21
28.79
26.92
26.03
26.21
27.20
28.51
29.62
30.16
29.97
29.15
27.92
26.53
25.11
23.64
21.95
19.85
17.14
13.72
9.64
5.06
0.35
-4.11
-7.96
-11.05
-13.46
-15.48
-17.47
-19.72
-22.33
-25.14
-27.81
-29.82
-30.56
-29.37
-25.81
-19.74
-11.60
-2.33
6.84
14.71
20.57
24.35
26.47
27.42
27.42
26.25
23.53
19.22
14.00
9.34
6.99
8.22
13.21
20.84
29.16
36.08
40.19
40.99
38.89
34.63
28.93
22.31
15.08
7.48
-0.13
-7.33
-13.77
-19.27
-24.00
-28.34
-32.70
-37.42
-42.55
-47.79
-52.60
-56.28
-58.26
-58.24
-56.36
-53.09
-49.13
-45.18
-41.67
-38.66
-35.93
-33.19
-30.34
-27.53
-25.19
-23.69
-23.06
-22.86
-22.28
-20.42
-16.76
-11.29
-4.55
2.71
9.78
16.22
21.86
26.59
30.27
32.70
33.69
33.26
31.71
29.49
27.06
24.61
22.04
19.00
15.11
10.18
4.35
-1.85
-7.61
-11.95
-14.10
-13.64
-10.67
-5.86
-0.18
5.26
9.58
12.19
12.96
12.05
9.82
6.74
3.27
-0.15
-3.15
-5.48
-6.99
-7.70
-7.71
-7.20
-6.36
-5.39
-4.42
-3.60
-2.97
-2.69
-2.90
-3.80
-5.53
-8.09
-11.32
-14.90
-18.49
-21.89
-25.07
-28.21
-31.56
-35.32
-39.43
-43.51
-46.90
-48.71
-48.16
-44.82
-38.85
-30.99
-22.42
-14.37
-7.79
-3.07
-0.14
1.38
1.86
1.51
0.43
-1.30
-3.36
-5.29
-6.56
-6.78
-5.89
-4.21
-2.27
-0.59
0.48
0.95
1.02
0.93
0.84
0.66
0.19
-0.78
-2.37
-4.47
-6.93
-9.58
-12.31
-15.00
-17.40
-19.10
-19.61
-18.61
-16.19
-12.84
-9.29
-6.13
-3.56
-1.27
1.29
4.60
8.72
13.21
17.35
20.42
22.10
22.51
22.05
21.24
20.44
19.76
19.17
18.70
18.44
18.66
19.52
20.95
22.60
23.94
24.42
23.73
21.86
19.04
15.57
11.73
7.61
3.27
-1.36
-6.25
-11.37
-16.57
-21.73
-26.74
-31.57
-36.25
-40.75
-44.94
-48.44
-50.75
-51.36
-50.08
-47.10
-43.01
-38.62
-34.66
-31.62
-29.64
-28.62
-28.36
-28.62
-29.12
-29.53
-29.50
-28.81
-27.51
-25.97
-24.83
-24.74
-26.06
-28.67
-31.91
-34.83
-36.30
-35.43
-31.67
-24.94
-15.66
-4.50
7.68
20.04
31.84
42.45
51.33
58.14
62.74
65.28
66.16
65.88
64.83
63.20
60.95
58.05
54.62
50.98
47.57
44.66
42.26
40.04
37.67
34.97
32.14
29.61
27.86
27.01
26.88
27.01
26.87
26.22
25.03
23.48
21.76
19.89
17.87
15.68
13.49
11.61
10.39
10.00
10.36
11.11
11.78
11.99
11.60
10.80
9.93
9.34
9.22
9.45
9.75
9.81
9.44
8.62
7.55
6.46
5.55
4.95
4.67
4.70
4.94
5.36
5.84
6.27
6.61
6.78
6.75
6.43
5.81
4.97
4.12
3.61
3.65
4.30
5.28
6.20
6.72
6.81
6.75
6.89
7.50
8.55
9.72
10.67
11.27
11.68
12.29
13.40
15.07
17.10
19.15
20.93
22.33
23.45
24.54
25.83
27.61
30.12
33.55
37.98
43.28
49.07
54.64
59.23
62.12
62.84
61.28
57.56
51.96
44.89
36.81
28.34
20.18
12.97
7.14
2.77
-0.53
-3.41
-6.64
-10.91
-16.59
-23.75
-32.07
-40.96
-49.63
-57.40
-63.78
-68.59
-71.97
-74.18
-75.45
-75.96
-75.85
-75.35
-74.83
-74.67
-75.11
-76.00
-76.75
-76.41
-74.09
-69.22
-61.95
-52.99
-43.51
-34.70
-27.45
-22.14
-18.70
-16.77
-15.88
-15.62
-15.63
-15.59
-15.22
-14.35
-12.91
-10.99
-8.82
-6.70
-4.94
-3.86
-3.70
-4.62
-6.59
-9.39
-12.70
-16.12
-19.33
-22.15
-24.55
-26.49
-28.05
-29.26
-30.23
-31.16
-32.32
-33.91
-35.87
-37.77
-38.83
-38.13
-34.98
-29.30
-21.61
-12.96
-4.53
2.81
8.66
13.11
16.49
19.08
21.03
22.30
22.90
22.93
22.62
22.30
22.18
22.37
22.75
23.12
23.26
23.04
22.43
21.50
20.30
18.78
16.82
14.24
10.88
6.76
2.11
-2.61
-6.87
-10.25
-12.60
-14.11
-15.24
-16.55
-18.61
-21.72
-25.85
-30.58
-35.10
-38.37
-39.38
-37.46
-32.58
-25.35
-16.90
-8.53
-1.34
4.01
7.38
8.92
8.95
7.86
6.04
4.02
2.33
1.48
1.71
2.96
4.87
6.88
8.51
9.53
9.96
10.10
10.20
10.45
10.82
11.07
10.83
9.76
7.72
4.82
1.42
-2.03
-5.16
-7.84
-10.19
-12.47
-14.98
-17.95
-21.42
-25.33
-29.35
-32.87
-35.10
-35.13
-32.36
-26.73
-18.90
-9.98
-1.21
6.51
12.74
17.43
20.67
22.54
23.01
22.14
20.27
17.98
15.99
14.84
14.79
15.69
17.11
18.56
19.71
20.41
20.72
20.73
20.49
19.91
18.75
16.81
14.01
10.49
6.55
2.56
-1.14
-4.38
-7.18
-9.67
-12.04
-14.54
-17.38
-20.79
-24.90
-29.56
-34.28
-38.17
-40.10
-39.08
-34.66
-27.20
-17.74
-7.76
1.41
8.89
14.40
18.19
20.66
22.13
22.74
22.56
21.72
20.48
19.23
18.35
18.10
18.45
19.21
20.05
20.72
21.10
21.27
21.40
21.63
21.88
21.91
21.34
19.83
17.22
13.57
9.21
4.64
0.37
-3.16
-5.79
-7.61
-8.98
-10.40
-12.36
-15.17
-18.92
-23.40
-28.03
-31.91
-33.92
-33.06
-28.73
-21.10
-11.22
-0.65
8.94
16.33
21.03
23.24
23.50
22.51
20.78
18.68
16.43
14.26
12.35
10.81
9.65
8.73
7.88
6.97
6.01
5.15
4.59
4.50
4.82
5.22
5.22
4.28
2.11
-1.26
-5.36
-9.57
-13.31
-16.27
-18.53
-20.53
-22.79
-25.83
-29.80
-34.64
-39.97
-45.20
-49.56
-52.19
-52.28
-49.32
-43.36
-35.18
-26.06
-17.46
-10.54
-5.77
-2.96
-1.44
-0.47
0.53
1.84
3.50
5.41
7.40
9.28
10.86
11.97
12.57
12.67
12.44
12.08
11.78
11.62
11.48
11.06
9.93
7.75
4.38
0.06
-4.69
-9.22
-13.07
-16.06
-18.44
-20.71
-23.47
-27.18
-32.02
-37.69
-43.45
-48.19
-50.70
-50.08
-46.02
-38.93
-29.87
-20.13
-10.94
-3.12
2.93
7.20
9.87
11.16
11.32
10.61
9.39
8.05
7.00
6.51
6.62
7.19
7.92
8.55
8.98
9.25
9.46
9.61
9.50
8.78
7.12
4.37
0.67
-3.58
-7.90
-11.88
-15.39
-18.52
-21.64
-25.17
-29.49
-34.73
-40.58
-46.25
-50.60
-52.37
-50.61
-45.06
-36.27
-25.38
-13.77
-2.69
7.06
15.11
21.41
26.11
29.37
31.43
32.57
33.23
33.79
34.59
35.78
37.32
39.00
40.51
41.53
41.81
41.30
40.17
38.75
37.40
36.29
35.24
33.82
31.60
28.33
24.16
19.54
14.98
10.86
7.28
4.08
1.03
-2.10
-5.50
-9.31
-13.65
-18.43
-23.25
-27.38
-29.91
-30.05
-27.46
-22.41
-15.69
-8.33
-1.26
4.89
9.79
13.41
15.76
16.92
16.98
16.13
14.68
13.09
11.84
11.38
11.99
13.71
16.31
19.26
21.91
23.68
24.23
23.57
22.02
20.02
17.96
15.98
14.00
11.86
9.46
6.91
4.49
2.53
1.24
0.60
0.34
0.01
-0.84
-2.56
-5.32
-9.08
-13.64
-18.56
-23.02
-25.86
-25.82
-22.06
-14.74
-5.18
4.50
12.17
16.63
17.95
17.23
15.88
14.82
14.16
13.41
12.07
10.02
7.68
5.71
4.57
4.33
4.68
5.12
5.24
4.87
4.04
2.93
1.66
0.20
-1.72
-4.41
-8.07
-12.63
-17.65
-22.52
-26.70
-30.01
-32.68
-35.27
-38.51
-42.93
-48.67
-55.38
-62.31
-68.46
-72.81
-74.57
-73.20
-68.51
-60.51
-49.48
-35.89
-20.56
-4.57
10.83
24.57
35.92
44.77
51.42
56.40
60.20
63.01
64.88
65.77
65.74
64.95
63.60
61.71
59.12
55.56
50.81
44.97
38.48
32.13
26.66
22.59
19.88
18.00
16.10
13.34
9.23
3.78
-2.45
-8.51
-13.35
-16.06
-16.12
-13.39
-8.25
-1.40
6.18
13.47
19.70
24.43
27.72
30.00
31.79
33.43
34.94
36.04
36.42
36.02
35.21
34.61
34.76
35.87
37.56
39.07
39.60
38.62
36.10
32.37
27.97
23.28
18.42
13.22
7.40
0.78
-6.78
-15.18
-24.32
-33.97
-43.68
-52.76
-60.19
-64.88
-65.94
-63.09
-56.71
-47.92
-38.25
-29.18
-21.80
-16.61
-13.52
-12.03
-11.46
-11.16
-10.69
-9.83
-8.67
-7.39
-6.18
-5.11
-4.04
-2.71
-0.83
1.72
4.86
8.24
11.27
13.36
13.97
12.85
10.20
6.58
2.82
-0.33
-2.51
-3.94
-5.31
-7.49
-11.15
-16.45
-22.89
-29.47
-34.81
-37.50
-36.34
-30.65
-20.63
-7.30
7.62
22.18
34.72
44.24
50.53
53.95
55.07
54.39
52.29
49.08
45.12
40.94
37.10
34.07
32.03
30.80
29.89
28.77
27.08
24.79
22.17
19.66
17.55
15.82
14.10
11.82
8.50
3.94
-1.67
-7.79
-13.83
-19.30
-24.02
-28.14
-32.04
-36.21
-41.11
-46.90
-53.28
-59.41
-64.00
-65.61
-63.13
-56.09
-44.93
-30.94
-15.86
-1.62
10.19
18.58
23.29
24.75
23.88
21.76
19.42
17.61
16.76
17.03
18.31
20.35
22.72
25.00
26.88
28.36
29.71
31.38
33.69
36.57
39.54
41.83
42.70
41.73
38.91
34.66
29.58
24.33
19.40
15.02
11.13
7.38
3.30
-1.49
-6.96
-12.49
-16.92
-18.87
-17.26
-11.85
-3.37
6.61
16.21
23.90
28.88
31.17
31.41
30.43
28.95
27.37
25.85
24.39
22.96
21.60
20.45
19.70
19.49
19.85
20.62
21.53
22.21
22.36
21.81
20.49
18.43
15.72
12.52
9.10
5.84
3.07
0.95
-0.73
-2.47
-4.89
-8.29
-12.47
-16.61
-19.57
-20.21
-17.85
-12.47
-4.72
4.27
13.20
21.02
27.05
31.15
33.58
34.72
34.85
34.04
32.23
29.33
25.46
20.92
16.12
11.50
7.31
3.67
0.59
-1.97
-4.09
-5.86
-7.44
-8.96
-10.52
-12.12
-13.62
-14.83
-15.49
-15.44
-14.62
-13.20
-11.52
-9.99
-8.93
-8.41
-8.18
-7.79
-6.76
-4.77
-1.83
1.79
5.61
9.13
11.83
13.31
13.30
11.75
8.84
5.02
0.79
-3.42
-7.39
-11.20
-15.00
-19.01
-23.28
-27.80
-32.47
-37.27
-42.10
-46.82
-51.10
-54.48
-56.58
-57.17
-56.32
-54.29
-51.47
-48.20
-44.85
-41.87
-39.73
-38.77
-39.02
-39.91
-40.41
-39.28
-35.56
-28.96
-20.05
-9.99
-0.21
8.14
14.31
18.19
20.03
20.37
19.78
18.78
17.81
17.20
17.27
18.22
20.21
23.25
27.13
31.48
35.77
39.47
42.19
43.71
44.02
43.24
41.47
38.74
34.97
30.03
23.82
16.39
7.96
-1.06
-10.15
-18.75
-26.32
-32.32
-36.28
-37.86
-36.92
-33.64
-28.51
-22.19
-15.38
-8.60
-2.17
3.65
8.58
12.14
13.79
13.16
10.28
5.74
0.53
-4.13
-7.25
-8.22
-7.01
-4.06
-0.11
4.02
7.67
10.45
12.25
13.14
13.23
12.61
11.36
9.65
7.71
5.79
4.07
2.43
0.51
-2.14
-5.74
-10.04
-14.22
-17.18
-17.87
-15.74
-10.92
-4.15
3.43
10.63
16.51
20.56
22.69
23.16
22.40
20.82
18.68
16.05
13.00
9.71
6.49
3.76
1.94
1.22
1.49
2.37
3.37
4.09
4.31
4.04
3.35
2.29
0.81
-1.27
-4.02
-7.44
-11.35
-15.49
-19.64
-23.72
-27.66
-31.32
-34.39
-36.30
-36.45
-34.44
-30.29
-24.48
-17.78
-10.98
-4.71
0.62
4.77
7.44
8.29
7.01
3.58
-1.49
-7.08
-11.77
-14.27
-13.94
-11.08
-6.77
-2.38
0.96
2.80
3.40
3.40
3.44
3.72
3.94
3.48
1.75
-1.47
-5.95
-11.05
-15.93
-19.58
-20.94
-18.86
-12.42
-1.12
14.69
33.74
54.03
73.36
89.90
102.50
110.75
114.86
115.43
113.29
109.58
105.56
102.48
101.39
102.75
106.09
109.61
110.20
104.16
88.60
62.91
29.68
-5.82
-37.61
-61.40
-76.25
-84.54
-90.30
-96.94
-105.74
-115.85
-125.51
-133.46
-139.72
-144.93
-149.36
-152.04
-150.89
-143.71
-129.34
-108.43
-83.55
-58.26
-36.04
-19.35
-9.06
-4.59
-4.26
-5.93
-7.71
-8.32
-7.32
-5.03
-2.28
-0.05
0.92
0.38
-1.25
-2.97
-3.53
-1.89
2.34
8.70
15.97
22.74
27.74
30.20
29.77
26.40
20.12
11.23
0.50
-10.53
-19.77
-25.25
-25.91
-22.17
-15.77
-9.12
-4.41
-2.88
-4.64
-8.79
-13.74
-17.54
-18.16
-14.08
-4.98
7.64
20.58
29.88
32.35
26.90
15.04
0.26
-13.62
-23.87
-29.59
-31.50
-31.07
-29.49
-27.43
-25.12
-22.89
-21.51
-21.87
-24.50
-29.09
-34.35
-38.57
-40.47
-39.81
-37.52
-35.09
-33.46
-32.20
-29.55
-23.19
-11.38
6.17
28.14
51.87
73.62
89.06
93.96
85.33
62.94
30.29
-5.88
-37.47
-57.99
-64.71
-59.31
-46.41
-31.16
-17.15
-5.81
3.01
9.82
14.76
17.79
19.06
19.09
18.58
17.85
16.37
12.90
6.33
-3.64
-15.85
-27.90
-36.86
-40.26
-36.94
-27.41
-13.74
1.13
14.14
22.97
26.60
25.56
21.78
18.07
17.22
21.11
30.10
42.86
56.84
69.03
76.94
79.13
75.51
67.21
56.10
44.24
33.25
23.99
16.50
10.39
5.20
0.79
-2.73
-5.19
-6.67
-7.66
-8.81
-10.66
-13.38
-16.88
-20.96
-25.50
-30.39
-35.16
-38.74
-39.64
-36.55
-29.07
-18.24
-6.21
4.71
13.04
18.72
22.80
26.42
29.84
32.16
32.03
28.80
23.39
18.02
15.04
15.41
17.96
19.87
18.25
11.72
1.18
-10.73
-21.34
-29.27
-34.82
-39.11
-42.97
-46.46
-49.22
-51.29
-53.15
-55.15
-56.44
-54.56
-46.16
-28.74
-2.29
30.17
63.69
93.19
115.15
128.25
132.81
130.05
121.55
109.23
95.29
81.72
69.35
57.35
43.67
26.41
5.32
-17.38
-37.50
-50.59
-53.80
-47.00
-32.66
-14.67
3.08
17.69
27.51
31.97
31.33
26.57
19.35
11.79
5.95
3.18
3.87
7.43
12.72
18.53
23.82
27.76
29.65
28.89
25.08
18.22
8.78
-2.41
-14.39
-26.33
-37.63
-47.88
-56.80
-64.24
-70.18
-74.72
-78.14
-80.89
-83.45
-86.16
-89.00
-91.44
-92.47
-90.94
-85.97
-77.46
-66.15
-53.51
-41.11
-30.18
-21.30
-14.42
-9.16
-5.15
-2.19
-0.13
1.25
2.40
3.88
6.16
9.45
13.57
18.05
22.34
26.09
29.19
31.76
33.94
35.72
36.93
37.30
36.67
35.13
33.04
30.91
29.21
28.14
27.55
26.95
25.60
22.89
18.57
13.03
7.30
2.78
0.87
2.46
7.63
15.65
25.26
35.16
44.36
52.31
58.85
63.96
67.68
69.96
70.80
70.30
68.67
66.19
63.19
59.97
56.74
53.61
50.56
47.45
44.06
40.06
35.12
28.95
21.40
12.51
2.57
-7.94
-18.41
-28.27
-37.09
-44.77
-51.46
-57.51
-63.30
-69.09
-75.01
-80.98
-86.79
-92.13
-96.65
-100.05
-102.14
-102.91
-102.48
-100.97
-98.37
-94.52
-89.18
-82.28
-74.17
-65.54
-57.23
-49.84
-43.36
-37.24
-30.57
-22.71
-13.54
-3.52
6.61
16.20
25.00
33.05
40.38
46.76
51.68
54.54
55.02
53.28
49.91
45.76
41.64
38.13
35.60
34.14
33.65
33.86
34.41
34.91
35.13
34.99
34.59
34.10
33.55
32.89
31.93
30.54
28.65
26.39
23.95
21.51
19.20
17.01
14.88
12.74
10.60
8.59
6.95
5.86
5.34
5.21
5.13
4.76
3.99
2.86
1.62
0.50
-0.43
-1.26
-2.09
-2.94
-3.71
-4.32
-4.80
-5.38
-6.32
-7.75
-9.55
-11.32
-12.59
-13.05
-12.57
-11.31
-9.52
-7.41
-5.21
-3.13
-1.41
-0.32
-0.04
-0.56
-1.64
-2.86
-3.79
-4.14
-3.81
-2.98
-1.93
-1.00
-0.43
-0.30
-0.58
-1.13
-1.71
-2.12
-2.10
-1.52
-0.42
0.98
2.20
2.65
1.88
-0.23
-3.46
-7.21
-10.85
-13.90
-16.07
-17.26
-17.39
-16.31
-13.93
-10.30
-5.81
-1.11
3.08
6.29
8.42
9.72
10.60
11.38
12.12
12.68
12.85
12.51
11.71
10.61
9.42
8.29
7.31
6.50
5.91
5.48
5.10
4.54
3.53
1.84
-0.58
-3.61
-6.94
-10.20
-13.12
-15.52
-17.43
-18.97
-20.35
-21.79
-23.45
-25.26
-26.90
-27.85
-27.55
-25.61
-22.02
-17.14
-11.58
-6.05
-1.16
2.69
5.35
6.86
7.41
7.25
6.57
5.51
4.17
2.69
1.25
0.13
-0.42
-0.30
0.37
1.28
2.05
2.39
2.15
1.37
0.16
-1.39
-3.27
-5.44
-7.90
-10.51
-13.09
-15.42
-17.41
-19.09
-20.65
-22.32
-24.12
-25.76
-26.67
-26.12
-23.51
-18.71
-12.10
-4.47
3.18
10.03
15.53
19.54
22.18
23.70
24.42
24.61
24.48
24.24
24.05
24.02
24.17
24.47
24.78
24.95
24.80
24.21
23.22
21.96
20.69
19.61
18.76
18.00
17.05
15.79
14.32
12.95
12.07
11.76
11.70
11.29
9.85
7.07
2.98
-2.09
-7.75
-13.71
-19.72
-25.38
-30.01
-32.75
-32.94
-30.39
-25.63
-19.68
-13.70
-8.55
-4.59
-1.72
0.41
2.09
3.48
4.56
5.24
5.54
5.64
5.84
6.43
7.50
8.91
10.26
11.09
11.10
10.31
9.04
7.77
6.83
6.22
5.63
4.60
2.82
0.26
-2.75
-5.70
-8.13
-9.80
-10.74
-11.25
-11.76
-12.60
-14.01
-16.09
-18.87
-22.26
-25.89
-29.14
-31.09
-30.96
-28.49
-24.08
-18.74
-13.56
-9.23
-5.69
-2.35
1.42
5.76
10.25
14.11
16.75
18.09
18.50
18.56
18.62
18.67
18.48
17.79
16.51
14.83
13.04
11.39
10.05
8.94
7.94
6.89
5.65
4.18
2.47
0.58
-1.34
-3.12
-4.58
-5.56
-6.04
-6.13
-6.02
-5.88
-5.83
-5.93
-6.18
-6.68
-7.54
-8.84
-10.51
-12.39
-14.28
-16.11
-17.94
-19.90
-22.05
-24.18
-25.95
-26.99
-27.11
-26.38
-25.08
-23.55
-22.10
-20.91
-20.07
-19.52
-19.13
-18.64
-17.82
-16.53
-14.85
-13.04
-11.52
-10.59
-10.39
-10.82
-11.61
-12.47
-13.22
-13.83
-14.47
-15.43
-16.99
-19.35
-22.53
-26.36
-30.52
-34.63
-38.32
-41.43
-43.96
-46.13
-48.32
-50.90
-54.04
-57.47
-60.52
-62.19
-61.62
-58.34
-52.46
-44.62
-35.65
-26.32
-17.14
-8.47
-0.56
6.37
12.17
16.96
21.11
25.12
29.34
33.84
38.44
43.01
47.59
52.40
57.56
62.78
67.36
70.38
71.17
69.53
65.78
60.43
53.95
46.67
38.91
31.34
24.97
21.10
20.80
24.53
31.89
41.69
52.41
62.53
70.91
77.00
80.75
82.39
82.27
80.59
77.43
72.84
66.92
60.06
52.73
45.39
38.41
31.84
25.62
19.61
13.80
8.30
3.27
-1.16
-5.00
-8.34
-11.27
-13.76
-15.69
-16.90
-17.37
-17.20
-16.63
-15.94
-15.33
-14.79
-14.32
-13.82
-13.33
-13.05
-13.18
-13.82
-14.87
-16.03
-16.87
-17.02
-16.22
-14.37
-11.57
-8.11
-4.60
-1.86
-0.74
-1.80
-5.02
-9.78
-15.03
-19.77
-23.45
-26.08
-28.10
-29.98
-31.94
-33.91
-35.66
-37.07
-38.24
-39.42
-40.85
-42.55
-44.27
-45.51
-45.78
-44.77
-42.56
-39.65
-36.81
-34.91
-34.54
-35.85
-38.48
-41.72
-44.74
-46.92
-48.05
-48.35
-48.33
-48.59
-49.54
-51.37
-53.99
-57.06
-60.07
-62.41
-63.30
-61.90
-57.52
-49.79
-38.92
-25.85
-12.02
0.95
11.74
19.63
24.62
27.22
28.14
27.98
27.02
25.40
23.25
20.91
18.95
18.02
18.56
20.62
23.85
27.60
31.16
33.96
35.60
35.84
34.58
31.79
27.67
22.57
17.06
11.66
6.72
2.18
-2.36
-7.48
-13.60
-20.68
-28.00
-34.27
-37.92
-37.64
-32.80
-23.72
-11.59
1.88
14.97
26.42
35.52
42.18
46.56
48.92
49.43
48.29
45.80
42.54
39.31
36.85
35.63
35.56
36.04
36.18
35.21
32.82
29.30
25.38
21.92
19.53
18.40
18.28
18.70
19.18
19.42
19.32
18.94
18.27
17.19
15.50
13.01
9.72
5.87
1.98
-1.30
-3.43
-4.08
-3.28
-1.39
1.10
3.73
6.17
8.31
10.12
11.55
12.52
12.86
12.52
11.59
10.31
9.09
8.21
7.80
7.75
7.87
7.96
7.98
7.98
8.06
8.31
8.65
8.95
9.05
8.86
8.41
7.90
7.63
7.92
9.02
10.97
13.55
16.32
18.77
20.43
21.07
20.78
19.88
18.83
18.02
17.61
17.49
17.31
16.72
15.59
14.17
12.98
12.52
12.95
13.96
14.87
14.97
14.00
12.31
10.72
10.15
11.21
13.93
17.79
21.89
25.09
26.19
24.07
18.14
8.88
-1.80
-10.75
-14.65
-11.37
-1.13
13.38
27.96
38.62
43.10
41.46
35.48
27.57
19.55
12.32
6.05
0.82
-2.98
-4.79
-4.17
-1.31
2.85
6.88
9.41
9.62
7.59
4.18
0.55
-2.32
-4.11
-5.15
-6.16
-7.83
-10.40
-13.62
-16.88
-19.59
-21.39
-22.30
-22.66
-22.98
-23.74
-25.22
-27.51
-30.39
-33.54
-36.54
-38.98
-40.48
-40.71
-39.45
-36.72
-32.72
-27.91
-22.87
-18.01
-13.57
-9.58
-5.93
-2.62
0.24
2.43
3.77
4.27
4.22
4.08
4.37
5.42
7.25
9.55
11.80
13.49
14.32
14.27
13.57
12.56
11.39
10.03
8.21
5.60
1.90
-3.04
-9.16
-16.13
-23.32
-29.85
-34.72
-37.12
-36.63
-33.48
-28.39
-22.41
-16.62
-11.82
-8.57
-7.12
-7.56
-9.84
-13.70
-18.69
-24.17
-29.37
-33.61
-36.43
-37.63
-37.39
-36.14
-34.45
-32.86
-31.72
-31.07
-30.70
-30.31
-29.65
-28.70
-27.58
-26.58
-25.96
-25.96
-26.82
-28.61
-31.15
-33.85
-35.73
-35.66
-32.83
-27.22
-19.70
-11.69
-4.64
0.60
3.98
5.95
6.97
7.23
6.50
4.48
1.15
-3.09
-7.42
-10.96
-13.15
-13.89
-13.59
-12.86
-12.34
-12.42
-13.21
-14.65
-16.59
-18.97
-21.86
-25.31
-29.32
-33.77
-38.47
-43.39
-48.56
-54.14
-59.98
-65.43
-69.35
-70.34
-67.34
-60.04
-49.14
-36.03
-22.42
-9.68
1.32
10.21
16.86
21.25
23.42
23.60
22.28
20.17
18.06
16.51
15.81
15.92
16.64
17.68
18.79
19.72
20.20
19.97
18.83
16.72
13.77
10.20
6.29
2.22
-1.96
-6.33
-11.12
-16.63
-23.18
-30.83
-39.22
-47.35
-53.77
-56.91
-55.64
-49.66
-39.71
-27.25
-13.99
-1.42
9.50
18.35
25.08
29.79
32.63
33.86
33.81
33.01
32.00
31.31
31.21
31.78
32.85
34.21
35.70
37.26
38.93
40.65
42.21
43.17
42.98
41.17
37.58
32.48
26.48
20.31
14.54
9.42
4.75
0.03
-5.29
-11.59
-18.70
-25.95
-32.15
-35.97
-36.33
-32.75
-25.53
-15.68
-4.63
6.21
15.67
23.09
28.13
30.81
31.33
30.06
27.51
24.24
20.83
17.80
15.50
14.09
13.49
13.48
13.73
13.93
13.81
13.30
12.41
11.23
9.83
8.20
6.25
3.83
0.85
-2.75
-6.90
-11.55
-16.71
-22.51
-29.00
-35.94
-42.62
-47.83
-50.17
-48.50
-42.37
-32.15
-18.93
-4.16
10.49
23.44
33.26
39.01
40.52
38.53
34.52
30.32
27.33
26.11
26.36
27.31
28.29
29.07
29.80
30.76
32.09
33.67
35.20
36.37
36.99
36.93
36.13
34.62
32.46
29.80
26.82
23.61
20.29
16.98
13.94
11.46
9.85
9.34
10.01
11.79
14.57
18.16
22.30
26.61
30.66
34.04
36.49
37.96
38.60
38.56
37.99
36.83
35.03
32.59
29.65
26.51
23.49
20.81
18.51
16.40
14.20
11.58
8.38
4.53
0.07
-4.96
-10.49
-16.33
-22.11
-27.24
-31.14
-33.46
-34.34
-34.40
-34.58
-35.68
-37.93
-40.98
-43.96
-45.86
-46.00
-44.08
-40.24
-34.89
-28.54
-21.68
-14.76
-8.17
-2.27
2.63
6.39
9.01
10.65
11.57
12.13
12.59
13.16
13.94
14.86
15.73
16.26
16.25
15.64
14.65
13.60
12.81
12.38
12.14
11.73
10.82
9.29
7.39
5.50
3.96
2.84
1.86
0.57
-1.45
-4.29
-7.63
-10.75
-12.83
-13.16
-11.46
-7.97
-3.34
1.59
6.08
9.68
12.34
14.19
15.49
16.41
17.03
17.35
17.32
16.86
16.00
14.88
13.81
13.11
13.05
13.62
14.62
15.70
16.58
17.16
17.47
17.56
17.35
16.65
15.30
13.33
10.95
8.46
6.00
3.43
0.40
-3.35
-7.85
-12.73
-17.34
-20.95
-23.00
-23.21
-21.72
-18.99
-15.71
-12.68
-10.59
-9.80
-10.33
-11.86
-13.88
-15.99
-17.95
-19.79
-21.66
-23.70
-26.02
-28.59
-31.31
-34.09
-36.88
-39.67
-42.52
-45.52
-48.71
-52.06
-55.48
-58.77
-61.79
-64.43
-66.58
-68.18
-69.14
-69.47
-69.25
-68.69
-67.99
-67.18
-65.97
-63.80
-60.02
-54.18
-46.18
-36.45
-25.69
-14.70
-4.19
5.41
13.83
20.98
26.83
31.38
34.67
36.72
37.58
37.36
36.23
34.56
32.82
31.63
31.46
32.51
34.64
37.29
39.78
41.37
41.57
40.20
37.32
33.31
28.55
23.44
18.34
13.49
9.06
5.11
1.56
-1.91
-5.83
-10.64
-16.49
-22.86
-28.47
-31.67
-30.98
-25.74
-16.50
-4.82
7.24
17.79
25.59
30.29
32.23
32.16
30.93
29.23
27.54
26.08
24.88
23.83
22.78
21.60
20.26
18.80
17.34
16.05
15.20
14.97
15.50
16.59
17.72
18.14
17.01
13.82
8.59
1.98
-4.92
-10.95
-15.31
-17.82
-18.98
-19.75
-21.23
-24.22
-28.90
-34.73
-40.54
-44.77
-45.91
-42.93
-35.59
-24.54
-11.10
3.10
16.50
27.96
36.91
43.18
47.02
48.75
48.88
47.95
46.52
45.14
44.06
43.30
42.62
41.67
40.21
38.31
36.26
34.43
33.06
32.13
31.35
30.36
28.93
27.05
24.98
23.05
21.58
20.68
20.27
20.18
20.17
20.02
19.54
18.71
17.65
16.75
16.63
18.00
21.52
27.52
35.92
46.19
57.44
68.63
78.76
87.00
92.74
95.57
95.27
91.80
85.29
76.14
65.00
52.70
40.05
27.55
15.30
2.95
-9.95
-23.61
-37.69
-51.32
-63.46
-73.28
-80.58
-85.72
-89.51
-92.67
-95.63
-98.36
-100.42
-101.20
-100.10
-96.73
-91.16
-84.01
-76.35
-69.40
-64.04
-60.38
-57.69
