1574760118.00
64.000000
-0.00
-0.00
-0.00
-0.00
-0.00
-0.00
-0.00
-0.00
-0.00
-0.00
0.00
0.01
0.01
-0.00
-0.03
-0.05
-0.05
0.00
0.13
0.36
0.66
1.01
1.37
1.72
2.06
2.40
2.79
3.24
3.80
4.42
5.06
5.66
6.20
6.68
7.15
7.68
8.31
9.14
10.09
11.04
11.88
12.56
13.14
13.76
14.65
15.96
17.91
20.32
22.90
25.38
27.58
29.57
31.68
34.32
37.81
42.54
48.15
54.10
59.83
64.97
69.58
74.14
79.34
85.71
93.76
103.00
112.62
121.73
129.77
136.75
143.30
150.75
157.77
166.64
177.95
191.79
206.97
220.57
228.25
225.36
208.53
176.87
132.76
80.05
23.07
-34.94
-92.44
-149.16
-205.23
-260.37
-313.74
-363.87
-409.83
-450.91
-486.50
-515.74
-537.23
-549.22
-549.96
-538.37
-514.21
-478.67
-433.88
-382.45
-327.02
-269.84
-212.63
-156.66
-102.95
-52.37
-5.90
35.58
71.43
101.35
125.50
144.38
158.69
169.15
176.37
180.75
182.57
182.07
179.51
175.23
169.65
163.18
156.15
148.81
141.30
133.69
126.02
118.33
110.69
103.16
95.80
88.68
81.83
75.25
68.95
62.95
57.25
51.86
46.78
42.03
37.59
33.45
29.61
26.07
22.81
19.83
17.11
14.67
12.48
10.54
8.83
7.35
6.07
4.97
4.05
3.27
2.62
2.09
1.65
1.30
1.01
0.79
0.61
0.47
0.37
0.29
0.23
0.19
0.17
0.15
0.15
0.16
0.18
0.20
0.23
0.27
0.31
0.35
0.39
0.43
0.48
0.53
0.58
0.63
0.69
0.74
0.81
0.88
0.95
1.03
1.13
1.23
1.35
1.47
1.62
1.78
1.96
2.15
2.38
2.62
2.89
3.19
3.52
3.88
4.28
4.70
5.17
5.67
6.21
6.79
7.42
8.08
8.79
9.55
10.35
11.19
12.09
13.02
14.01
15.06
16.18
17.35
18.60
19.87
21.16
22.39
23.50
24.38
24.92
24.97
24.45
23.25
21.33
18.68
15.37
11.48
7.18
2.68
-1.82
-6.11
-9.97
-13.25
-15.85
-17.70
-18.80
-19.19
-18.97
-18.25
-17.18
-15.88
-14.46
-13.03
-11.58
-10.15
-8.66
-7.08
-5.40
-3.60
-1.70
0.26
2.25
4.23
6.25
8.35
10.50
12.68
14.85
17.04
19.16
21.22
23.28
25.48
28.09
31.05
34.35
37.95
41.67
45.30
48.65
51.68
54.59
57.76
61.21
64.96
68.99
73.01
76.61
79.47
81.47
82.88
84.35
85.93
87.71
89.38
90.18
88.95
84.36
75.10
59.74
41.69
22.49
3.24
-15.54
-34.02
-52.87
-73.09
-95.67
-121.08
-148.82
-177.74
-205.21
-227.65
-241.55
-244.65
-236.74
-219.82
-197.39
-173.21
-150.68
-131.36
-115.30
-101.52
-88.86
-76.58
-64.37
-52.43
-41.10
-30.99
-22.38
-15.14
-8.92
-3.27
2.00
6.83
11.03
14.32
16.70
18.52
20.39
22.87
25.98
29.22
31.68
32.57
31.64
29.35
26.66
24.44
23.17
22.58
21.88
20.34
17.57
13.98
10.42
7.73
6.33
5.80
5.18
3.46
0.30
-3.70
-7.27
-8.97
-8.11
-5.06
-1.12
1.95
3.02
1.86
-0.69
-3.22
-4.52
-4.01
-1.96
0.89
3.80
6.37
8.69
11.01
13.55
16.24
18.59
20.14
20.48
19.66
18.14
16.56
15.47
14.99
14.76
14.17
12.82
10.77
8.62
7.18
6.99
7.97
9.47
10.43
10.24
9.00
7.57
7.24
8.89
12.57
17.40
22.02
25.35
27.10
27.92
28.79
30.50
33.02
35.42
36.50
35.25
31.58
26.20
20.21
14.57
9.56
4.88
0.13
-4.74
-9.12
-12.10
-12.89
-11.36
-8.23
-4.66
-1.99
-0.85
-1.21
-2.43
-3.65
-4.40
-4.81
-5.52
-7.21
-10.07
-13.60
-16.66
-18.10
-17.24
-14.26
-10.19
-6.22
-3.32
-1.64
-0.62
0.53
2.31
4.45
5.99
5.79
3.22
-1.39
-6.91
-11.93
-15.54
-17.86
-19.80
-22.85
-27.92
-35.06
-43.42
-51.53
-58.29
-63.27
-66.90
-70.11
-73.71
-77.98
-82.67
-87.25
-91.33
-94.94
-98.61
-102.79
-107.68
-112.89
-117.73
-121.76
-125.13
-128.72
-133.52
-139.86
-146.83
-152.27
-153.67
-149.01
-137.64
-120.33
-98.56
-73.85
-46.94
-17.89
13.51
47.05
81.58
115.05
144.97
169.00
185.68
194.85
197.78
196.94
195.50
196.54
202.03
212.53
226.89
242.67
256.70
265.54
266.18
256.47
235.80
205.52
168.90
130.44
94.53
64.16
40.18
21.48
6.04
-8.08
-21.88
-35.46
-48.58
-61.13
-73.38
-85.70
-98.17
-110.37
-121.63
-131.48
-139.91
-147.40
-154.43
-160.92
-166.06
-168.55
-167.42
-162.64
-155.37
-147.58
-141.09
-136.83
-134.42
-132.48
-129.28
-123.38
-113.91
-100.40
-82.64
-60.54
-34.17
-4.05
28.88
63.36
98.21
132.57
165.93
198.02
228.55
257.19
283.66
307.80
329.64
349.34
366.99
382.55
395.64
405.58
411.26
411.29
404.31
389.35
366.19
335.55
298.90
258.26
215.76
173.32
132.37
93.65
57.20
22.59
-10.70
-42.77
-72.92
-99.79
-121.79
-137.79
-147.58
-152.03
-152.61
-150.88
-147.99
-144.64
-141.20
-138.00
-135.49
-134.11
-134.20
-135.65
-138.00
-140.47
-142.28
-142.92
-142.21
-140.18
-136.87
-132.18
-126.00
-118.38
-109.66
-100.49
-91.52
-83.18
-75.43
-67.93
-60.24
-52.12
-43.70
-35.33
-27.43
-20.27
-13.81
-7.85
-2.12
3.53
9.15
14.65
19.94
24.94
29.63
34.08
38.35
42.55
46.78
51.08
55.44
59.75
63.80
67.37
70.29
72.40
73.57
73.66
72.60
70.29
66.85
62.56
57.89
53.42
49.64
46.91
45.31
44.73
44.90
45.54
46.40
47.16
47.51
47.01
45.30
42.15
37.58
31.89
25.48
18.72
11.75
4.52
-3.10
-11.22
-19.73
-28.46
-37.27
-46.13
-55.16
-64.42
-73.68
-82.31
-89.43
-94.21
-96.28
-96.00
-94.40
-92.85
-92.60
-94.29
-97.79
-102.32
-106.71
-109.89
-111.11
-110.21
-107.46
-103.55
-99.29
-95.34
-91.85
-88.55
-84.59
-79.05
-71.29
-61.38
-50.19
-39.16
-29.75
-22.94
-18.94
-17.25
-16.86
-16.74
-15.99
-14.02
-10.38
-4.82
2.73
11.98
22.14
31.99
40.06
45.15
46.73
45.18
41.59
37.44
33.96
31.91
31.49
32.65
35.38
39.80
46.09
54.16
63.47
72.88
81.00
86.48
88.50
86.98
82.66
76.88
71.30
67.33
65.79
66.61
68.85
70.94
71.01
67.29
58.47
43.95
24.07
0.07
-26.15
-52.46
-77.07
-98.89
-117.73
-134.11
-148.83
-162.50
-175.38
-187.36
-198.05
-206.95
-213.50
-217.12
-217.36
-214.13
-207.97
-199.97
-191.46
-183.56
-176.71
-170.65
-164.67
-158.08
-150.56
-142.06
-132.49
-121.44
-108.39
-93.22
-76.74
-60.82
-47.76
-39.38
-36.06
-36.48
-38.21
-38.70
-36.20
-30.04
-20.48
-8.33
5.32
19.06
31.02
39.15
41.63
37.62
27.54
13.00
-3.82
-20.83
-36.47
-49.87
-60.69
-68.88
-74.62
-78.21
-80.03
-80.33
-79.19
-76.44
-71.92
-65.65
-57.85
-48.96
-39.49
-30.04
-21.06
-12.93
-5.89
0.14
5.62
11.29
17.93
26.00
35.48
45.84
56.26
65.88
73.96
79.96
83.37
83.71
80.53
73.59
63.34
50.93
38.20
27.10
19.04
14.35
12.26
11.33
10.24
8.48
6.57
5.73
7.33
12.23
20.54
31.74
44.83
58.67
71.99
83.60
92.68
98.96
102.88
105.45
107.87
111.07
115.49
120.91
126.73
132.24
136.83
140.18
142.25
143.31
143.78
144.13
144.54
144.87
144.61
143.00
139.43
133.66
126.01
117.29
108.57
100.75
94.28
88.94
83.88
78.08
70.80
62.07
52.84
44.63
38.86
36.20
36.22
37.37
37.61
35.12
28.94
19.43
8.05
-3.10
-11.99
-17.31
-18.69
-16.75
-12.73
-8.05
-4.01
-1.59
-1.33
-3.38
-7.48
-12.95
-18.77
-23.77
-26.79
-27.07
-24.43
-19.40
-13.06
-6.71
-1.48
1.96
3.42
3.05
0.98
-2.88
-8.79
-16.94
-27.14
-38.52
-49.68
-58.99
-65.10
-67.49
-66.68
-64.16
-61.85
-61.54
-64.30
-70.06
-77.67
-85.18
-90.43
-91.77
-88.54
-81.32
-71.76
-62.04
-54.05
-48.82
-46.00
-44.10
-41.04
-34.96
-24.89
-11.14
4.78
20.75
34.63
44.81
50.47
51.57
48.48
41.66
31.45
18.29
2.86
-13.64
-29.57
-43.13
-52.81
-57.88
-58.48
-55.53
-50.27
-43.91
-37.32
-30.90
-24.68
-18.49
-12.10
-5.48
1.15
7.32
12.46
16.07
17.89
17.94
16.44
13.68
10.08
6.21
2.80
0.69
0.53
2.42
5.87
9.87
13.34
15.57
16.43
16.32
15.98
16.16
17.43
19.97
23.49
27.23
30.08
31.07
29.84
27.02
24.21
23.29
25.57
30.99
37.97
44.06
47.01
45.84
41.13
34.61
28.01
22.29
17.15
11.54
4.47
-4.22
-13.58
-22.08
-28.31
-31.64
-32.52
-32.03
-31.36
-31.16
-31.36
-31.26
-30.01
-27.17
-22.96
-18.26
-14.17
-11.48
-10.29
-9.99
-9.49
-7.80
-4.37
0.71
6.73
12.54
16.84
18.42
16.51
11.12
2.92
-6.93
-17.37
-27.93
-38.72
-50.15
-62.24
-74.16
-84.40
-91.30
-93.93
-92.53
-88.50
-83.74
-79.92
-77.90
-77.55
-77.86
-77.42
-74.85
-69.26
-60.71
-50.18
-39.35
-29.96
-23.07
-18.59
-15.33
-11.49
-5.42
3.70
15.63
29.27
43.28
56.51
68.38
78.80
87.92
95.88
102.61
107.72
110.45
109.83
104.79
94.81
80.29
62.75
44.56
28.22
15.56
7.29
3.09
2.10
3.49
6.64
10.86
15.17
18.20
18.58
15.59
9.58
1.90
-5.67
-11.69
-15.65
-17.89
-19.17
-20.27
-21.31
-22.01
-21.82
-20.38
-17.92
-15.28
-13.67
-14.30
-17.83
-24.11
-32.17
-40.63
-48.10
-53.69
-57.14
-58.65
-58.76
-57.70
-55.57
-52.25
-47.61
-41.90
-35.70
-29.87
-25.14
-21.88
-19.94
-18.68
-17.47
-15.87
-13.90
-11.97
-10.43
-9.49
-8.92
-8.23
-7.10
-5.54
-4.04
-3.34
-4.02
-6.12
-9.10
-12.18
-14.63
-16.28
-17.58
-19.33
-22.40
-26.99
-32.66
-38.26
-42.46
-44.32
-43.59
-40.75
-36.63
-31.94
-27.02
-21.88
-16.65
-11.66
-7.53
-5.05
-4.43
-5.30
-6.61
-7.11
-6.07
-3.65
-0.92
0.70
0.27
-2.00
-4.73
-6.05
-4.49
0.15
6.70
13.28
18.14
20.78
21.93
22.96
24.99
27.92
30.43
30.66
27.34
20.78
13.11
7.86
8.94
19.75
42.41
77.33
123.05
175.80
229.74
277.53
311.80
327.21
322.10
299.17
264.49
225.35
187.73
154.62
126.11
100.62
76.95
55.75
39.20
29.80
28.29
32.30
36.88
36.41
27.35
10.07
-11.46
-31.94
-47.85
-59.65
-71.71
-89.97
-118.65
-157.92
-203.33
-247.77
-284.16
-307.77
-317.33
-314.51
-302.62
-285.24
-265.25
-244.45
-223.62
-202.72
-180.95
-157.18
-130.56
-101.02
-69.80
-39.22
-11.78
11.13
30.26
48.62
70.06
97.24
129.89
164.27
194.61
215.96
226.36
227.58
223.73
218.60
213.57
206.88
194.87
174.47
145.01
108.96
70.81
35.25
5.60
-16.72
-31.86
-40.96
-45.74
-48.47
-51.93
-58.83
-70.92
-88.01
-107.65
-126.05
-139.67
-146.88
-148.94
-149.59
-153.17
-162.48
-177.22
-193.51
-205.07
-205.22
-189.41
-157.06
-112.09
-61.87
-14.82
22.09
45.12
54.22
52.21
43.60
33.51
26.83
27.68
38.69
60.28
90.27
124.15
156.24
181.21
195.67
198.85
192.36
179.19
162.54
145.05
128.33
112.91
98.58
84.79
71.23
58.00
45.73
35.33
27.56
23.05
22.13
25.06
32.03
42.87
56.73
71.74
85.10
93.56
94.37
86.02
68.76
44.55
16.60
-11.32
-35.23
-51.66
-58.27
-54.68
-43.33
-29.76
-21.76
-27.23
-51.10
-92.46
-143.55
-191.66
-223.35
-229.46
-208.39
-166.22
-113.52
-60.53
-13.28
27.58
65.03
102.52
141.23
179.53
214.31
243.00
264.92
281.10
293.12
301.97
307.58
309.39
307.47
303.14
298.76
296.81
298.57
303.28
308.19
309.54
303.86
289.33
266.55
238.34
208.87
182.18
160.88
145.25
133.44
122.37
109.22
92.68
73.49
54.07
37.35
25.41
18.59
15.47
13.61
10.75
5.72
-1.31
-9.11
-16.20
-21.36
-24.13
-24.80
-24.46
-24.80
-27.84
-35.56
-49.32
-69.35
-94.64
-123.14
-152.41
-180.15
-204.78
-225.44
-241.79
-253.83
-261.52
-264.75
-263.31
-256.99
-245.80
-230.06
-210.62
-188.78
-166.21
-144.64
-125.61
-110.36
-99.62
-93.59
-91.80
-93.00
-95.56
-97.49
-97.19
-93.78
-87.30
-78.77
-69.75
-61.94
-56.52
-53.80
-53.12
-53.14
-52.44
-50.13
-46.29
-42.23
-39.81
-40.80
-45.96
-54.47
-64.40
-73.61
-80.92
-86.68
-92.50
-100.16
-110.31
-121.92
-132.57
-139.57
-141.17
-137.04
-128.10
-115.64
-100.80
-84.34
-67.03
-50.16
-35.31
-23.49
-14.12
-4.62
8.53
28.01
53.67
81.96
107.28
124.05
129.44
124.03
111.25
95.56
80.44
67.75
57.97
51.20
47.87
48.47
53.09
60.56
68.70
74.97
77.23
74.51
66.94
55.56
41.51
25.55
8.05
-11.09
-31.74
-53.01
-72.81
-87.97
-95.07
-91.64
-77.54
-55.55
-30.85
-9.63
3.35
6.14
0.10
-10.90
-22.51
-31.57
-36.98
-39.48
-40.53
-41.28
-41.97
-42.14
-41.16
-38.74
-35.31
-31.55
-28.24
-25.68
-23.53
-21.20
-17.98
-13.79
-9.14
-4.99
-2.12
-0.66
0.16
1.70
5.25
11.40
19.80
29.11
38.04
45.58
51.46
56.12
60.08
63.74
67.18
70.25
72.86
74.96
76.62
77.70
77.95
77.01
74.45
70.25
64.60
57.87
50.37
41.82
31.16
16.51
-4.49
-33.61
-70.78
-113.48
-156.98
-195.71
-225.37
-244.57
-255.16
-261.41
-267.89
-277.70
-291.69
-308.68
-326.79
-344.41
-360.74
-375.44
-388.04
-397.67
-403.16
-403.68
-399.19
-390.50
-379.17
-366.61
-353.67
-340.20
-325.37
-308.31
-288.84
-267.91
-247.47
-229.73
-216.13
-206.57
-199.39
-191.98
-181.86
-167.82
-150.23
-130.73
-111.30
-93.30
-77.10
-62.18
-47.93
-34.09
-21.02
-9.36
0.48
8.63
15.88
23.28
31.71
41.53
52.42
63.59
74.22
83.86
92.79
101.90
112.43
125.39
141.14
159.19
178.38
197.46
215.54
232.50
248.94
265.92
284.59
305.92
330.69
359.11
390.40
422.37
451.17
472.09
480.88
475.48
456.94
429.10
397.12
365.61
337.20
312.47
290.63
270.76
252.41
235.54
220.05
205.24
189.97
173.06
154.01
133.48
113.19
95.36
81.84
73.36
69.15
67.28
65.49
62.08
56.68
50.21
44.26
40.28
38.74
39.03
39.79
39.63
37.78
34.35
30.20
26.46
24.10
23.59
24.80
27.28
30.44
33.91
37.50
41.08
44.38
46.84
47.74
46.46
42.91
37.62
31.62
26.11
21.91
19.23
17.67
16.41
14.75
12.26
8.98
5.22
1.23
-3.02
-7.86
-13.72
-20.74
-28.63
-36.63
-43.90
-49.82
-54.36
-58.07
-61.65
-65.65
-70.13
-74.75
-79.09
-82.95
-86.62
-90.60
-95.32
-100.82
-106.60
-111.78
-115.39
-116.62
-115.03
-110.51
-103.32
-93.76
-82.25
-69.31
-55.51
-41.75
-29.13
-18.79
-11.64
-7.94
-7.31
-8.74
-11.11
-13.47
-15.36
-16.85
-18.16
-19.65
-21.55
-24.07
-27.54
-32.31
-38.71
-46.76
-56.06
-65.82
-75.14
-83.48
-90.88
-98.05
-106.14
-116.14
-128.60
-143.18
-158.76
-173.74
-186.42
-195.73
-201.48
-204.46
-206.15
-208.21
-211.92
-217.69
-224.92
-232.02
-236.82
-237.15
-231.35
-218.75
-199.75
-175.69
-148.47
-120.01
-91.98
-65.54
-41.47
-20.26
-2.05
13.39
26.84
39.53
52.83
67.78
84.66
103.10
122.23
141.14
159.37
176.97
194.61
213.51
235.38
261.99
294.37
331.72
370.69
405.59
429.85
438.25
428.90
403.98
368.89
330.30
294.11
264.39
243.28
231.39
228.26
232.23
240.33
248.48
252.26
248.13
234.45
211.94
183.18
151.82
121.43
94.74
73.32
57.54
46.89
40.32
36.61
34.44
32.42
29.02
22.84
13.21
0.73
-12.53
-23.56
-29.53
-28.98
-22.46
-12.27
-1.42
7.61
13.74
17.33
19.50
21.05
21.87
20.92
16.72
8.11
-5.15
-22.37
-42.06
-62.45
-81.78
-98.49
-111.38
-119.64
-122.97
-121.73
-116.79
-109.57
-101.68
-94.76
-90.20
-88.78
-90.45
-94.09
-97.70
-98.91
-95.75
-87.39
-74.42
-58.59
-42.06
-26.64
-13.17
-1.54
9.04
19.44
30.23
41.45
52.69
63.29
72.51
79.68
84.11
85.14
82.19
74.95
63.66
49.20
33.04
16.82
1.93
-10.90
-21.66
-30.85
-39.20
-47.14
-54.70
-61.41
-66.48
-69.20
-69.18
-66.61
-62.18
-56.86
-51.49
-46.49
-41.71
-36.60
-30.64
-23.68
-16.17
-8.99
-3.19
0.49
1.84
1.24
-0.44
-2.08
-2.60
-1.27
2.08
6.82
11.61
14.66
14.20
9.13
-0.45
-13.09
-26.34
-37.52
-44.65
-47.17
-46.02
-43.14
-40.70
-40.27
-42.47
-46.88
-52.29
-57.11
-59.77
-59.02
-54.23
-45.51
-33.53
-19.32
-3.87
12.01
27.69
42.50
55.61
66.21
73.83
78.69
81.73
84.16
86.87
89.88
92.19
92.14
88.05
78.77
64.14
44.89
22.42
-1.59
-25.51
-47.99
-67.99
-84.90
-98.54
-109.24
-117.73
-125.00
-131.85
-138.53
-144.57
-148.89
-150.23
-147.67
-140.94
-130.35
-116.46
-99.55
-79.29
-54.83
-25.15
10.19
50.51
93.74
136.59
175.19
205.90
226.05
234.57
232.07
220.68
203.43
183.53
163.71
145.84
130.79
118.60
108.77
100.58
93.33
86.42
79.47
72.25
64.80
57.35
50.21
43.50
37.05
30.42
23.08
14.73
5.58
-3.65
-11.97
-18.53
-22.94
-25.48
-26.90
-28.13
-29.89
-32.45
-35.59
-38.80
-41.55
-43.48
-44.61
-45.23
-45.83
-46.94
-48.98
-52.10
-56.14
-60.59
-64.68
-67.62
-68.79
-67.92
-65.12
-60.81
-55.47
-49.54
-43.38
-37.34
-31.86
-27.54
-25.04
-24.88
-27.20
-31.75
-37.86
-44.66
-51.28
-56.98
-61.29
-64.00
-65.13
-64.87
-63.48
-61.14
-57.90
-53.68
-48.29
-41.58
-33.60
-24.59
-15.02
-5.44
3.70
12.10
19.63
26.28
32.11
37.16
41.41
44.80
47.29
48.91
49.80
50.24
50.58
51.14
52.14
53.49
54.84
55.66
55.41
53.77
50.76
46.66
41.86
36.64
31.03
24.94
18.29
11.16
3.79
-3.49
-10.52
-17.34
-24.08
-30.84
-37.45
-43.52
-48.57
-52.39
-55.09
-57.21
-59.50
-62.58
-66.68
-71.51
-76.28
-79.94
-81.40
-79.89
-75.13
-67.48
-57.91
-47.79
-38.56
-31.24
-26.18
-22.90
-20.37
-17.60
-13.98
-9.64
-5.22
-1.44
1.37
3.51
5.73
8.75
12.87
17.74
22.52
26.32
28.63
29.43
29.07
27.91
26.09
23.51
19.99
15.51
10.30
4.71
-1.00
-6.86
-13.17
-20.35
-28.74
-38.60
-50.13
-63.49
-78.60
-94.75
-110.27
-122.57
-128.74
-126.56
-115.47
-97.04
-74.56
-52.00
-32.72
-18.46
-9.13
-3.35
0.74
4.59
8.99
14.10
19.79
25.83
31.91
37.52
41.93
44.41
44.50
42.32
38.59
34.41
30.91
28.97
29.01
31.13
35.11
40.57
47.01
53.88
60.56
66.47
71.00
73.65
74.03
72.03
67.83
61.96
55.18
48.28
41.91
36.47
32.11
28.80
26.36
24.47
22.69
20.52
17.56
13.75
9.39
5.14
1.77
-0.20
-0.75
-0.33
0.34
0.63
0.35
-0.16
-0.16
1.19
4.45
9.71
16.49
23.91
30.90
36.48
39.96
41.00
39.69
36.45
31.92
26.77
21.61
16.82
12.60
9.00
5.96
3.44
1.36
-0.30
-1.65
-2.73
-3.61
-4.31
-4.81
-5.09
-5.16
-5.15
-5.24
-5.59
-6.27
-7.21
-8.24
-9.10
-9.64
-9.85
-9.87
-9.97
-10.38
-11.22
-12.46
-13.93
-15.39
-16.60
-17.28
-17.25
-16.36
-14.58
-11.96
-8.69
-4.98
-0.98
3.23
7.62
12.11
16.52
20.44
23.31
24.60
23.81
20.70
15.31
8.06
-0.31
-8.82
-16.47
-22.43
-26.28
-28.09
-28.36
-27.76
-26.95
-26.36
-26.16
-26.33
-26.72
-27.14
-27.38
-27.20
-26.43
-25.04
-23.21
-21.35
-19.93
-19.37
-19.83
-21.14
-22.92
-24.68
-26.03
-26.81
-27.05
-26.97
-26.84
-26.82
-27.07
-27.63
-28.48
-29.62
-30.93
-32.28
-33.45
-34.18
-34.33
-33.90
-33.04
-32.06
-31.29
-30.99
-31.28
-32.12
-33.37
-34.80
-36.27
-37.66
-38.96
-40.18
-41.42
-42.75
-44.23
-45.85
-47.39
-48.42
-48.33
-46.60
-42.96
-37.64
-31.18
-24.26
-17.29
-10.23
-2.66
5.94
15.82
26.78
38.26
49.48
59.76
68.54
75.32
79.57
80.73
78.39
72.67
64.38
54.98
46.25
39.75
36.39
36.18
38.35
41.57
44.43
45.74
44.85
41.74
36.94
31.35
25.85
21.06
17.06
13.50
9.89
5.95
1.86
-1.81
-4.41
-5.55
-5.30
-4.13
-2.60
-1.11
0.23
1.52
2.87
4.18
5.18
5.51
4.92
3.40
1.17
-1.44
-4.07
-6.45
-8.38
-9.74
-10.45
-10.52
-10.05
-9.24
-8.33
-7.60
-7.23
-7.27
-7.59
-7.90
-7.87
-7.16
-5.70
-3.63
-1.37
0.52
1.48
1.13
-0.67
-3.85
-8.16
-13.21
-18.53
-23.57
-27.75
-30.62
-31.98
-31.91
-30.85
-29.41
-28.27
-27.98
-28.79
-30.57
-32.84
-34.85
-35.75
-34.92
-32.15
-27.76
-22.52
-17.38
-13.15
-10.19
-8.44
-7.43
-6.68
-5.83
-4.83
-3.85
-3.13
-2.83
-2.94
-3.34
-3.87
-4.40
-4.80
-4.89
-4.46
-3.25
-1.14
1.69
4.84
7.77
10.05
11.50
12.31
12.85
13.52
14.50
15.61
16.37
16.09
14.10
9.92
3.55
-4.53
-13.33
-21.71
-28.64
-33.52
-36.32
-37.51
-37.85
-38.14
-38.97
-40.58
-42.84
-45.25
-47.00
-47.21
-45.04
-40.00
-32.03
-21.49
-8.91
5.19
20.43
36.55
53.26
70.00
85.92
99.89
110.81
117.81
120.50
118.99
113.79
105.73
95.70
84.56
73.01
61.54
50.47
39.94
29.95
20.48
11.53
3.15
-4.55
-11.41
-17.31
-22.21
-26.24
-29.78
-33.24
-37.01
-41.09
-45.04
-48.01
-49.11
-47.83
-44.30
-39.38
-34.31
-30.16
-27.48
-26.13
-25.50
-24.97
-24.18
-23.17
-22.19
-21.36
-20.51
-19.18
-16.92
-13.53
-9.28
-4.78
-0.69
2.65
5.37
8.06
11.32
15.58
20.70
26.09
30.88
34.26
35.82
35.68
34.46
33.04
32.41
33.32
36.08
40.52
46.01
51.78
57.20
62.03
66.47
70.95
75.87
81.38
87.37
93.59
99.88
106.20
112.68
119.38
126.37
133.68
141.51
150.12
159.52
169.07
177.16
181.43
179.57
170.31
154.15
133.38
111.18
90.17
71.27
53.36
34.06
11.17
-16.15
-46.95
-79.18
-110.88
-141.27
-170.90
-200.97
-232.14
-263.59
-292.78
-316.25
-330.84
-334.83
-328.75
-315.30
-298.72
-283.56
-273.31
-269.50
-271.32
-275.66
-277.68
-271.83
-253.43
-220.66
-176.25
-127.61
-85.19
-58.96
-54.59
-71.32
-102.50
-138.73
-172.02
-198.29
-217.56
-231.65
-241.56
-246.29
-243.61
-232.10
-212.36
-187.09
-159.47
-131.21
-101.60
-67.67
-25.93
25.53
85.55
149.41
209.93
259.74
293.78
311.34
316.30
315.61
316.68
324.52
340.26
361.21
382.29
397.78
403.13
396.39
378.83
354.73
329.86
309.29
294.89
284.15
271.19
249.80
216.94
174.53
128.71
86.70
53.22
28.72
10.02
-6.99
-24.83
-43.34
-60.47
-74.14
-83.79
-90.66
-96.76
-103.66
-111.17
-117.66
-120.97
-119.62
-113.67
-104.64
-94.93
-86.71
-81.13
-77.97
-76.03
-73.74
-70.02
-64.75
-58.78
-53.46
-49.97
-48.81
-49.58
-51.36
-53.29
-54.98
-56.61
-58.63
-61.30
-64.45
-67.53
-69.98
-71.60
-72.62
-73.56
-74.97
-77.21
-80.51
-85.01
-90.84
-97.93
-105.92
-113.88
-120.52
-124.53
-124.95
-121.71
-115.68
-108.35
-101.29
-95.62
-91.68
-89.07
-87.04
-84.92
-82.35
-79.27
-75.60
-71.16
-65.48
-58.05
-48.59
-37.19
-24.35
-10.72
3.17
17.04
30.73
44.08
56.72
68.00
77.17
83.72
87.54
89.13
89.38
89.31
89.59
90.27
90.75
90.09
87.43
82.53
75.88
68.52
61.46
55.13
49.13
42.27
33.32
21.71
8.08
-5.76
-17.53
-25.36
-28.72
-28.73
-27.91
-29.34
-35.63
-47.91
-65.11
-83.94
-99.40
-105.80
-98.21
-73.87
-33.52
18.14
73.12
121.74
155.19
167.79
158.42
130.35
89.80
43.68
-2.25
-44.26
-80.50
-110.25
-133.16
-149.16
-158.65
-162.78
-163.46
-162.79
-162.32
-162.62
-163.16
-162.70
-160.06
-154.65
-146.57
-136.32
-124.24
-110.18
-93.55
-73.79
-51.08
-26.64
-2.69
18.25
34.19
44.42
49.81
52.61
56.06
63.60
78.05
100.67
130.47
164.13
196.77
223.37
240.38
246.72
243.68
233.94
220.13
203.86
185.59
165.25
142.96
119.42
95.64
72.40
49.88
28.00
7.06
-11.58
-25.44
-31.55
-27.66
-13.22
10.21
39.41
70.45
99.79
124.89
144.34
157.63
164.92
166.85
164.46
158.96
151.35
142.12
131.10
117.81
102.02
84.21
65.73
48.34
33.59
22.14
13.65
6.95
0.71
-6.13
-14.16
-23.50
-34.00
-45.26
-56.75
-67.81
-77.72
-86.02
-92.58
-97.74
-102.15
-106.52
-111.16
-115.69
-118.72
-118.07
-111.32
-96.69
-73.87
-44.49
-11.85
19.94
47.12
67.28
79.82
85.81
87.28
86.49
85.20
84.34
84.02
83.68
82.56
80.05
75.94
70.54
64.47
58.38
52.69
47.56
42.89
38.46
33.97
29.13
23.62
17.20
9.81
1.72
-6.35
-13.41
-18.40
-20.50
-19.46
-15.71
-10.27
-4.48
0.39
3.47
4.44
3.54
1.46
-0.87
-2.55
-2.78
-1.08
2.64
8.16
14.94
22.32
29.65
36.38
42.03
46.23
48.70
49.27
48.00
45.23
41.43
37.13
32.71
28.37
24.16
20.06
16.15
12.58
9.50
6.89
4.55
2.14
-0.70
-4.13
-8.07
-12.16
-15.99
-19.24
-21.90
-24.21
-26.54
-29.19
-32.16
-35.18
-37.78
-39.59
-40.41
-40.30
-39.47
-38.12
-36.43
-34.53
-32.59
-30.84
-29.54
-28.92
-29.11
-30.17
-32.10
-34.80
-38.08
-41.57
-44.77
-47.18
-48.45
-48.55
-47.70
-46.24
-44.52
-42.73
-40.99
-39.40
-38.08
-37.13
-36.60
-36.40
-36.37
-36.41
-36.59
-37.11
-38.21
-40.01
-42.38
-45.02
-47.58
-49.77
-51.47
-52.70
-53.55
-54.17
-54.67
-55.16
-55.63
-56.03
-56.16
-55.78
-54.60
-52.40
-49.09
-44.74
-39.60
-34.14
-28.97
-24.77
-22.20
-21.76
-23.65
-27.69
-33.39
-40.09
-47.16
-54.08
-60.53
-66.28
-71.11
-74.71
-76.70
-76.74
-74.67
-70.66
-65.22
-59.11
-53.13
-47.96
-44.01
-41.48
-40.28
-40.19
-40.70
-41.10
-40.51
-37.97
-32.80
-24.76
-14.22
-2.02
10.79
23.28
34.90
45.46
55.08
63.87
71.79
78.59
83.97
87.86
90.56
92.72
95.11
98.18
101.74
104.87
106.23
104.58
99.27
90.41
78.69
64.93
49.76
33.63
17.07
1.23
-12.14
-20.96
-23.61
-19.60
-10.00
3.02
16.96
29.80
40.41
48.32
53.22
54.36
50.56
40.73
24.70
3.88
-18.68
-38.80
-52.34
-56.31
-49.80
-34.28
-13.11
9.30
28.77
42.40
49.04
49.26
44.82
37.85
30.33
23.76
19.12
16.97
17.42
20.07
23.91
27.48
29.13
27.66
22.74
14.97
5.73
-3.52
-11.74
-18.63
-24.43
-29.56
-34.25
-38.40
-41.82
-44.39
-46.32
-48.03
-49.84
-51.84
-53.80
-55.38
-56.44
-57.25
-58.41
-60.66
-64.60
-70.50
-78.32
-87.90
-99.11
-112.01
-126.62
-142.43
-157.91
-170.27
-175.84
-171.14
-154.17
-125.36
-87.59
-45.45
-3.96
32.58
61.26
80.72
90.92
92.90
88.45
79.83
69.39
59.17
50.61
44.55
41.20
40.35
41.32
42.99
43.92
42.72
38.47
31.00
20.87
9.07
-3.34
-15.29
-25.67
-33.29
-37.07
-36.47
-31.87
-24.64
-16.70
-9.66
-4.15
0.35
5.04
11.04
18.60
27.02
34.94
40.91
43.90
43.44
39.53
32.48
22.77
11.02
-1.98
-15.39
-28.40
-40.12
-49.59
-55.58
-56.69
-51.67
-39.92
-21.95
0.45
24.59
47.63
67.15
81.64
90.52
93.89
92.20
86.18
76.75
65.11
52.72
41.00
31.12
23.69
18.62
15.28
12.70
10.03
6.90
3.59
0.98
0.22
2.22
7.29
14.82
23.47
31.50
37.34
39.99
39.22
35.44
29.53
22.45
15.07
8.13
2.22
-2.09
-4.28
-3.88
-0.66
5.23
12.99
21.28
28.53
33.34
35.04
33.82
30.58
26.46
22.30
18.36
14.46
10.44
6.54
3.50
2.31
3.57
7.12
11.97
16.64
19.83
20.88
19.96
17.81
15.27
12.90
10.65
7.97
4.02
-1.98
-10.35
-20.80
-32.33
-43.57
-53.16
-60.23
-64.73
-67.47
-69.83
-73.25
-78.70
-86.29
-95.13
-103.50
-109.22
-110.24
-105.26
-94.29
-78.98
-62.33
-48.09
-39.47
-37.91
-42.24
-48.75
-52.53
-49.19
-36.61
-15.60
10.75
38.58
64.82
88.05
108.31
126.22
142.11
155.63
166.15
173.30
177.38
179.20
179.71
179.47
178.69
177.50
176.36
176.24
178.33
183.45
191.32
200.16
206.91
207.91
199.90
181.00
151.40
113.54
71.59
30.61
-4.67
-31.02
-47.38
-54.93
-56.44
-55.20
-54.03
-54.73
-58.08
-64.20
-73.07
-84.55
-98.27
-113.26
-127.77
-139.60
-146.66
-147.72
-142.89
-133.66
-122.41
-111.59
-102.91
-96.93
-93.06
-90.01
-86.28
-80.72
-72.71
-62.26
-49.85
-36.33
-22.72
-10.06
0.87
9.75
16.74
22.37
27.29
31.85
36.16
40.11
43.64
46.96
50.43
54.34
58.67
62.97
66.51
68.68
69.16
68.11
66.06
63.63
61.24
58.96
56.54
53.54
49.62
44.63
38.67
32.00
24.86
17.45
9.86
2.19
-5.49
-13.12
-20.83
-28.89
-37.58
-47.01
-56.94
-66.77
-75.70
-83.12
-88.79
-93.05
-96.58
-100.21
-104.55
-109.69
-115.21
-120.23
-123.61
-124.17
-120.93
-113.25
-100.96
-84.57
-65.22
-44.54
-24.35
-6.07
9.55
22.61
33.86
44.18
54.14
63.66
72.03
78.25
81.54
81.66
79.02
74.43
68.59
61.83
54.07
44.98
34.64
23.68
13.31
4.86
-0.99
-4.62
-7.37
-10.86
-16.13
-23.01
-30.19
-35.92
-38.94
-39.10
-37.53
-35.93
-35.92
-38.26
-42.61
-47.78
-52.25
-54.79
-54.88
-52.78
-49.40
-45.95
-43.53
-42.78
-43.73
-45.99
-48.87
-51.87
-54.46
-56.29
-57.00
-56.12
-53.37
-48.71
-42.42
-34.82
-26.13
-16.34
-5.46
6.06
17.18
26.55
32.92
36.10
36.96
37.34
39.27
44.04
51.75
61.31
70.93
78.77
83.56
84.74
82.35
76.89
69.08
59.72
49.85
40.48
32.86
28.01
26.55
28.45
32.77
37.83
41.55
42.15
38.71
31.48
21.79
11.54
2.53
-4.07
-8.22
-10.56
-12.32
-14.60
-18.09
-23.10
-29.49
-36.94
-45.02
-53.01
-59.87
-64.36
-65.44
-62.60
-56.30
-48.00
-39.72
-33.66
-31.28
-33.13
-38.71
-46.66
-55.43
-63.64
-70.33
-75.01
-77.44
-77.64
-75.79
-72.53
-68.80
-65.69
-64.14
-64.03
-64.26
-62.67
-56.89
-45.38
-28.15
-6.91
15.41
35.71
51.69
62.40
68.16
70.15
69.73
67.98
65.84
63.92
63.05
64.00
67.29
72.82
79.54
85.72
89.41
89.30
85.25
78.30
70.26
62.80
57.00
53.08
50.49
48.62
46.89
45.07
43.19
41.30
39.41
37.41
35.23
32.91
30.61
28.52
26.70
24.99
23.02
20.37
16.86
12.44
7.51
2.58
-1.88
-5.54
-8.51
-11.19
-14.08
-17.49
-21.32
-24.98
-27.63
-28.44
-27.04
-23.59
-18.96
-14.11
-9.88
-6.55
-3.80
-1.12
1.79
4.66
6.78
7.42
6.41
4.33
2.28
1.41
2.28
4.60
7.51
9.95
11.37
11.85
11.93
12.29
13.11
14.06
14.46
13.76
11.96
9.73
8.14
8.07
9.77
12.62
15.29
16.59
15.79
13.07
9.37
5.69
2.69
0.41
-1.51
-3.33
-4.84
-5.40
-4.35
-1.41
3.00
7.83
12.03
14.81
16.15
16.48
16.40
16.31
16.05
15.17
13.22
10.12
6.36
2.75
0.03
-1.51
-2.16
-2.51
-3.34
-4.82
-6.78
-8.64
-9.79
-10.13
-10.06
-10.34
-11.74
-14.52
-18.32
-22.46
-26.37
-29.90
-33.50
-37.90
-43.57
-50.53
-58.03
-65.03
-70.67
-74.67
-77.62
-80.67
-85.00
-91.21
-98.92
-106.76
-112.61
-114.39
-110.56
-100.57
-85.29
-66.37
-45.99
-26.09
-7.93
7.83
20.94
31.15
37.97
40.80
39.27
33.55
24.47
13.56
2.64
-6.58
-12.62
-14.72
-12.52
-6.24
3.46
15.61
28.87
41.76
52.85
61.02
65.76
67.18
66.08
63.52
60.62
58.28
56.82
56.20
56.03
55.83
55.34
54.41
53.11
51.57
49.93
48.31
46.86
45.82
45.38
45.70
46.70
47.86
48.57
48.05
45.98
42.49
38.09
33.38
28.53
23.22
16.85
9.03
0.13
-8.73
-16.02
-20.65
-22.45
-22.32
-21.93
-22.66
-25.27
-29.52
-34.48
-39.24
-43.29
-46.69
-49.60
-52.03
-53.52
-53.37
-51.10
-46.79
-41.27
-35.91
-31.88
-29.93
-29.88
-30.90
-31.98
-32.37
-32.11
-31.84
-32.44
-34.39
-37.37
-40.28
-41.71
-40.73
-37.44
-33.01
-29.43
-28.34
-30.55
-35.58
-41.98
-48.15
-52.87
-55.72
-56.82
-56.35
-54.23
-50.08
-43.61
-34.89
-24.59
-13.92
-3.95
4.60
11.86
18.58
25.64
33.62
42.20
50.22
56.21
59.04
58.57
55.73
52.06
48.92
46.85
45.43
43.55
40.34
35.58
29.95
24.64
20.58
18.04
16.47
14.97
12.93
10.34
7.82
6.13
5.71
6.44
7.60
8.47
8.49
7.77
6.76
5.97
5.59
5.29
4.38
2.31
-0.98
-4.87
-8.34
-10.42
-10.79
-9.87
-8.58
-8.09
-8.87
-10.76
-13.00
-14.69
-15.51
-15.91
-16.86
-19.35
-23.61
-29.02
-34.21
-37.97
-39.78
-40.24
-40.91
-43.32
-48.45
-55.99
-64.64
-72.72
-78.98
-83.36
-86.91
-91.34
-98.36
-109.08
-123.79
-141.83
-161.65
-180.73
-195.82
-203.61
-201.41
-188.27
-165.29
-135.32
-102.00
-68.39
-35.93
-4.20
28.49
64.01
103.26
145.40
187.83
226.72
257.75
277.55
284.29
278.48
262.72
241.07
218.11
197.84
182.93
174.24
170.98
171.05
171.80
170.86
166.79
159.45
149.87
139.63
130.35
122.95
117.40
112.69
107.00
98.19
84.45
65.00
40.69
14.02
-11.32
-31.64
-44.30
-48.72
-46.60
-40.96
-35.23
-31.94
-32.06
-35.30
-40.83
-48.17
-57.58
-69.72
-84.63
-101.03
-116.25
-127.15
-131.69
-129.98
-124.28
-117.89
-113.30
-111.05
-109.84
-107.62
-103.12
-96.55
-89.19
-82.14
-75.28
-67.27
-56.45
-42.33
-26.18
-10.76
0.92
7.15
8.14
5.94
3.39
2.88
5.69
11.73
20.07
29.45
38.86
47.71
55.79
63.03
69.34
74.42
77.96
79.72
79.81
78.64
76.76
74.55
71.91
68.38
63.40
56.74
48.83
40.61
33.14
26.96
21.90
17.18
11.80
5.26
-2.28
-9.90
-16.35
-20.66
-22.45
-22.17
-20.80
-19.49
-19.07
-19.82
-21.52
-23.65
-25.70
-27.44
-28.77
-29.81
-30.36
-30.07
-28.46
-25.18
-20.40
-14.77
-9.32
-5.01
-2.35
-1.18
-0.82
-0.38
0.87
3.22
6.44
10.12
13.82
17.37
20.87
24.39
27.85
30.86
32.87
33.44
32.48
30.28
27.34
24.19
21.18
18.36
15.67
12.95
10.14
7.32
4.63
2.25
0.16
-1.78
-3.75
-5.84
-7.78
-9.07
-9.15
-7.77
-5.18
-2.07
0.57
2.06
2.13
1.04
-0.59
-2.16
-3.24
-3.75
-3.83
-3.67
-3.42
-3.12
-2.80
-2.50
-2.41
-2.82
-3.89
-5.64
-7.82
-10.01
-11.88
-13.24
-14.28
-15.38
-16.87
-18.87
-21.10
-23.00
-23.95
-23.61
-22.07
-19.82
-17.64
-16.04
-15.24
-14.93
-14.55
-13.69
-12.27
-10.71
-9.64
-9.54
-10.41
-11.71
-12.72
-12.80
-11.86
-10.35
-8.98
-8.43
-8.87
-10.02
-11.29
-12.10
-12.35
-12.35
-12.70
-13.86
-15.83
-18.15
-20.06
-21.01
-20.86
-19.92
-18.90
-18.31
-18.40
-18.92
-19.32
-19.11
-18.16
-16.73
-15.45
-14.93
-15.41
-16.67
-18.13
-19.09
-19.10
-18.20
-16.74
-15.36
-14.42
-13.99
-13.85
-13.62
-13.20
-12.76
-12.70
-13.30
-14.45
-15.61
-16.09
-15.47
-13.86
-11.91
-10.61
-10.58
-11.97
-14.30
-16.70
-18.41
-19.10
-18.88
-18.17
-17.38
-16.73
-16.09
-15.29
-14.12
-12.54
-10.74
-8.94
-7.44
-6.30
-5.50
-4.90
-4.30
-3.65
-3.05
-2.68
-2.67
-2.98
-3.34
-3.38
-2.83
-1.66
-0.14
1.13
1.73
1.41
0.42
-0.60
-1.07
-0.65
0.51
1.85
2.72
2.78
2.11
1.08
0.22
-0.20
-0.24
-0.14
-0.25
-0.61
-1.07
-1.33
-1.13
-0.52
0.17
0.47
0.09
-0.89
-2.00
-2.54
-2.05
-0.49
1.70
3.74
5.04
5.36
5.00
4.60
4.66
5.35
6.38
7.26
7.59
7.32
6.74
6.23
6.08
6.27
6.51
6.48
5.89
4.76
3.32
1.84
0.57
-0.52
-1.65
-3.09
-4.98
-7.18
-9.33
-11.01
-12.01
-12.39
-12.44
-12.61
-13.09
-13.80
-14.37
-14.25
-13.19
-11.28
-9.02
-7.05
-5.87
-5.54
-5.66
-5.67
-5.02
-3.52
-1.42
0.88
2.81
4.10
4.81
5.17
5.54
6.07
6.63
6.94
6.73
6.02
5.10
4.47
4.50
5.30
6.62
7.87
8.67
8.85
8.62
8.41
8.50
8.81
8.91
8.31
6.77
4.57
2.40
0.97
0.68
1.33
2.20
2.54
1.85
0.34
-1.31
-2.31
-2.12
-0.86
0.88
2.38
3.25
3.65
4.11
5.25
7.31
10.01
12.74
14.76
15.75
15.83
15.50
15.43
16.00
17.14
18.41
19.20
19.11
18.16
16.77
15.53
14.93
15.07
15.60
16.04
15.90
15.06
13.78
12.46
11.44
10.71
9.91
8.58
6.44
3.62
0.61
-1.92
-3.53
-4.19
-4.31
-4.64
-5.74
-7.78
-10.46
-13.07
-15.02
-16.01
-16.28
-16.39
-16.86
-17.87
-19.15
-20.17
-20.39
-19.53
-17.73
-15.26
-12.51
-9.69
-6.81
-3.87
-0.89
1.80
3.69
4.24
3.19
0.77
-2.31
-5.00
-6.47
-6.36
-4.91
-2.91
-1.12
-0.06
0.23
0.13
-0.06
-0.31
-0.87
-2.19
-4.40
-7.16
-9.77
-11.50
-11.90
-11.05
-9.60
-8.24
-7.52
-7.50
-7.78
-7.82
-7.23
-6.09
-4.93
-4.38
-4.80
-5.93
-7.08
-7.31
-6.05
-3.38
0.04
3.11
5.03
5.54
5.01
4.21
3.81
4.09
4.86
5.62
6.03
6.07
6.06
6.38
7.24
8.46
9.42
9.48
8.26
5.95
3.28
1.10
0.08
0.20
0.90
1.33
0.87
-0.53
-2.38
-3.93
-4.64
-4.45
-3.66
-2.79
-2.09
-1.45
-0.48
1.23
3.72
6.58
9.13
10.71
11.16
10.77
10.21
10.09
10.70
11.84
12.91
13.44
13.17
12.33
11.45
11.02
11.23
11.79
12.12
11.65
10.13
7.81
5.22
3.01
1.47
0.52
-0.22
-1.23
-2.68
-4.49
-6.32
-7.84
-8.97
-9.85
-10.76
-11.83
-12.87
-13.46
-13.07
-11.44
-8.67
-5.24
-1.89
0.86
2.66
3.63
4.12
4.53
5.12
5.87
6.56
6.91
6.83
6.46
6.11
6.02
6.26
6.61
6.72
6.23
5.12
3.68
2.36
1.57
1.42
1.69
2.00
2.04
1.72
1.15
0.50
-0.10
-0.65
-1.24
-2.02
-3.06
-4.36
-5.85
-7.36
-8.66
-9.50
-9.65
-9.04
-7.79
-6.25
-4.85
-3.94
-3.57
-3.56
-3.57
-3.29
-2.73
-2.07
-1.61
-1.51
-1.63
-1.72
-1.57
-1.25
-1.09
-1.42
-2.34
-3.55
-4.57
-4.99
-4.76
-4.25
-3.99
-4.39
-5.50
-6.95
-8.15
-8.65
-8.38
-7.68
-7.19
-7.43
-8.51
-10.14
-11.73
-12.83
-13.46
-14.14
-15.75
-18.92
-23.71
-29.42
-34.75
-38.49
-40.06
-39.83
-38.99
-39.04
-41.13
-45.61
-52.05
-59.42
-66.57
-72.76
-77.67
-81.47
-84.48
-86.92
-88.84
-90.07
-90.50
-90.27
-89.89
-90.07
-91.40
-93.97
-97.50
-102.07
-108.77
-119.63
-136.68
-159.90
-185.82
-207.78
-217.93
-210.39
-183.64
-140.73
-87.26
-28.40
32.98
95.88
158.66
217.08
263.96
291.52
295.19
276.09
241.12
200.28
162.71
133.72
114.09
101.36
92.32
84.89
78.72
74.52
73.01
74.02
76.43
78.59
78.93
76.66
72.05
66.27
60.90
57.21
55.69
56.04
57.49
59.35
61.41
63.80
66.69
69.88
72.78
74.70
75.21
74.30
72.29
69.50
66.02
61.73
56.56
50.62
44.23
37.66
30.91
23.60
15.27
5.78
-4.40
-14.09
-21.86
-26.46
-27.32
-24.68
-19.52
-13.14
-6.86
-1.57
2.40
5.26
7.64
10.17
13.24
16.75
20.18
22.81
24.12
24.00
22.88
21.46
20.46
20.22
20.74
21.79
23.17
25.04
27.88
32.20
38.21
45.45
52.83
58.94
62.55
63.15
60.98
56.91
51.89
46.64
41.45
36.31
31.20
26.31
22.01
18.76
16.73
15.72
15.07
13.97
11.73
8.09
3.31
-1.98
-7.02
-11.30
-14.73
-17.57
-20.27
-23.14
-26.17
-29.02
-31.04
-31.54
-30.01
-26.29
-20.73
-14.18
-7.79
-2.67
0.36
1.10
-0.08
-2.44
-5.20
-7.77
-9.87
-11.36
-12.20
-12.31
-11.63
-10.25
-8.45
-6.72
-5.53
-5.24
-5.93
-7.42
-9.39
-11.51
-13.62
-15.69
-17.78
-19.99
-22.36
-24.83
-27.26
-29.43
-31.16
-32.27
-32.70
-32.43
-31.50
-29.99
-27.99
-25.63
-23.12
-20.76
-18.91
-17.95
-18.11
-19.44
-21.79
-24.78
-27.97
-30.93
-33.29
-34.83
-35.52
-35.48
-34.94
-34.16
-33.35
-32.60
-32.00
-31.58
-31.41
-31.57
-32.10
-32.92
-33.87
-34.60
-34.72
-33.83
-31.72
-28.37
-24.09
-19.41
-14.92
-10.96
-7.47
-3.91
0.53
6.55
14.28
23.10
31.75
38.71
42.75
43.35
40.92
36.70
32.33
29.39
28.94
31.22
35.47
40.26
43.90
45.07
43.41
39.71
35.75
33.61
34.87
40.02
48.16
57.42
65.52
70.48
71.12
67.18
59.19
48.26
35.77
23.29
12.38
4.37
0.17
-0.03
3.07
7.94
12.52
14.84
13.56
8.38
0.16
-9.56
-19.20
-27.65
-34.58
-40.25
-45.10
-49.37
-52.90
-55.33
-56.38
-56.09
-54.93
-53.56
-52.62
-52.50
-53.22
-54.57
-56.18
-57.65
-58.60
-58.64
-57.41
-54.62
-50.18
-44.33
-37.65
-30.95
-25.08
-20.64
-17.87
-16.62
-16.57
-17.31
-18.55
-20.19
-22.23
-24.84
-28.31
-33.00
-39.24
-47.18
-56.59
-66.74
-76.52
-84.52
-89.37
-90.01
-86.01
-77.74
-66.49
-54.23
-43.28
-35.60
-32.20
-32.86
-36.24
-40.67
-45.05
-49.70
-56.26
-66.63
-81.42
-98.54
-113.09
-118.56
-109.02
-80.98
-34.32
27.83
99.64
173.28
239.53
288.81
313.02
307.85
274.58
220.11
154.80
88.87
29.06
-22.76
-68.33
-110.15
-148.56
-180.70
-201.47
-206.02
-191.86
-159.81
-113.46
-57.99
0.90
57.51
106.33
142.48
162.75
166.78
157.49
140.41
121.77
106.33
95.94
89.53
84.39
77.74
67.90
54.55
38.39
20.49
1.99
-16.06
-32.67
-46.94
-58.13
-66.03
-71.12
-74.59
-78.10
-83.27
-91.18
-102.09
-115.32
-129.43
-142.52
-152.50
-157.50
-156.29
-148.60
-135.25
-117.83
-98.07
-77.22
-55.65
-32.99
-8.81
16.67
42.16
65.46
84.06
95.98
100.35
97.60
89.31
77.70
65.15
53.81
45.23
40.19
38.70
40.06
42.97
45.69
46.28
42.71
33.01
15.53
-10.66
-45.05
-85.00
-125.68
-160.83
-184.48
-192.92
-185.98
-167.10
-141.87
-115.79
-92.48
-72.75
-55.17
-37.23
-16.38
9.59
42.65
84.34
134.96
192.21
250.60
302.17
338.93
355.83
352.89
335.19
310.54
286.18
265.99
249.63
233.74
214.14
187.65
152.90
110.11
60.65
6.90
-47.56
-98.02
-139.44
-167.76
-181.46
-182.34
-174.89
-164.56
-155.45
-148.73
-142.38
-132.35
-114.20
-84.69
-42.48
11.51
74.02
139.40
200.08
247.96
276.45
282.68
268.63
240.30
205.32
170.09
137.94
109.22
82.73
57.43
33.30
10.97
-9.24
-27.86
-46.07
-64.79
-83.96
-102.49
-118.86
-131.91
-141.42
-148.20
-153.65
-159.27
-166.29
-175.31
-185.87
-196.05
-202.36
-200.48
-186.73
-159.77
-121.92
-78.85
-37.87
-5.52
14.34
21.15
17.14
6.49
-5.31
-11.97
-7.39
12.49
47.71
93.12
139.38
175.86
194.66
193.33
175.25
147.57
118.03
92.40
73.47
61.59
55.81
54.83
57.28
61.56
65.89
68.35
67.20
61.47
51.20
37.65
22.96
9.51
-0.95
-7.95
-12.31
-15.67
-19.51
-24.32
-29.42
-33.40
-35.12
-34.51
-32.86
-32.29
-34.72
-40.90
-49.95
-59.73
-67.79
-72.44
-73.39
-71.75
-69.39
-68.09
-68.69
-70.97
-73.90
-76.30
-77.58
-78.07
-78.85
-81.32
-86.65
-95.24
-106.37
-117.98
-126.45
-126.93
-114.30
-85.22
-40.19
15.12
70.81
115.56
140.51
142.17
123.04
89.91
50.83
12.59
-20.31
-45.18
-60.30
-64.48
-57.70
-41.95
-21.57
-2.37
10.12
12.47
4.45
-11.23
-29.98
-47.21
-59.94
-67.70
-72.37
-76.95
-83.82
-93.31
-103.31
-109.99
-109.47
-99.34
-79.69
-53.05
-23.57
4.17
26.21
39.82
43.78
38.18
24.17
3.66
-21.09
-47.69
-73.84
-97.57
-117.33
-132.13
-141.54
-145.51
-144.01
-136.89
-123.95
-105.34
-81.94
-55.23
-26.56
3.86
37.35
76.05
121.27
171.94
224.16
272.37
311.67
339.50
355.64
360.87
355.36
338.35
309.46
270.24
224.63
177.65
132.97
91.22
50.21
6.89
-40.34
-90.42
-140.19
-186.03
-225.30
-256.93
-280.84
-297.07
-305.21
-304.57
-294.70
-275.91
-249.50
-217.75
-183.67
-150.38
-120.22
-94.15
-71.46
-50.14
-27.64
-1.70
28.95
63.86
100.51
134.61
161.15
176.25
178.86
171.35
158.50
145.44
135.64
129.91
127.14
125.72
124.90
125.14
127.36
131.98
138.13
143.89
146.93
145.35
138.14
125.36
107.82
86.63
62.65
36.07
6.57
-26.24
-62.18
-100.23
-138.71
-176.09
-211.76
-246.23
-280.72
-316.01
-351.48
-384.62
-411.56
-428.24
-431.84
-421.85
-400.22
-370.73
-337.71
-304.61
-273.19
-243.36
-213.92
-183.47
-151.19
-116.98
-80.98
-43.20
-3.33
38.79
82.73
127.24
170.78
212.09
250.82
287.32
321.69
352.79
377.95
393.74
397.64
389.56
372.19
349.98
327.19
306.19
287.10
268.78
250.43
232.53
216.56
203.82
194.19
186.01
176.97
165.57
151.92
137.27
122.62
107.56
90.10
67.93
40.34
9.32
-20.57
-43.90
-56.55
-57.14
-47.24
-30.37
-10.48
9.30
27.34
43.58
59.26
76.55
98.23
126.96
164.02
207.98
253.80
293.24
316.84
316.89
290.22
239.36
171.64
96.50
22.44
-45.03
-103.65
-153.34
-194.50
-226.85
-249.18
-260.01
-258.29
-243.98
-217.98
-181.57
-135.66
-80.47
-16.25
55.26
129.30
197.75
250.61
278.92
278.09
249.50
199.97
139.14
76.24
17.91
-32.37
-73.56
-105.95
-130.49
-148.53
-161.79
-171.91
-179.81
-185.29
-187.35
-185.09
-178.56
-169.17
-159.33
-151.64
-147.96
-148.78
-152.85
-157.03
-156.50
-145.75
-120.37
-79.27
-26.30
29.89
78.07
108.13
114.41
97.06
60.98
13.13
-40.20
-94.37
-145.71
-190.17
-222.54
-237.31
-230.58
-202.01
-155.54
-98.46
-39.40
13.98
56.58
86.35
103.77
110.70
109.36
101.54
88.47
71.32
51.72
32.14
15.68
5.24
2.55
7.39
17.59
29.87
41.12
49.73
56.03
62.18
70.94
84.40
102.98
125.07
147.47
166.31
177.98
180.04
171.67
153.76
128.58
99.15
68.32
38.12
9.37
-18.03
-44.48
-69.91
-93.51
-113.88
-129.65
-140.18
-145.94
-148.58
-150.47
-154.09
-161.29
-172.73
-187.47
-203.08
-216.01
-222.51
-219.66
-206.37
-183.69
-154.57
-122.88
-92.26
-65.18
-42.48
-23.58
-7.07
8.59
24.51
41.10
58.06
74.53
89.35
101.24
109.15
112.46
111.20
105.92
97.54
86.99
74.92
61.54
46.77
30.57
13.30
-3.98
-19.64
-31.74
-38.61
-39.36
-34.21
-24.56
-12.73
-1.44
6.77
10.17
8.19
1.62
-7.62
-17.01
-24.05
-26.95
-25.01
-18.68
-9.28
1.48
11.87
20.36
25.74
27.28
24.93
19.61
13.14
7.81
5.63
7.48
12.79
19.79
26.42
31.13
33.38
33.51
32.18
29.82
26.47
22.00
16.46
10.31
4.29
-0.85
-4.72
-7.31
-8.84
-9.58
-9.61
-8.82
-7.13
-4.55
-1.42
1.73
4.34
6.02
6.68
6.58
6.10
5.60
5.22
4.90
4.46
3.72
2.66
1.35
-0.04
-1.34
-2.50
-3.51
-4.42
-5.27
-6.10
-6.93
-7.84
-8.94
-10.38
-12.32
-14.76
-17.47
-19.98
-21.66
-21.93
-20.50
-17.51
-13.52
-9.26
-5.40
-2.30
0.01
1.77
3.23
4.49
5.43
5.81
5.39
4.17
2.34
0.30
-1.57
-3.06
-4.15
-5.00
-5.76
-6.47
-7.07
-7.42
-7.50
-7.41
-7.36
-7.63
-8.36
-9.60
-11.25
-13.07
-14.78
-16.02
-16.50
-16.01
-14.49
-12.04
-8.95
-5.55
-2.23
0.64
2.76
4.00
4.37
4.06
3.40
2.72
2.20
1.82
1.40
0.67
-0.54
-2.20
-4.10
-5.95
-7.46
-8.51
-9.08
-9.27
-9.24
-9.10
-9.07
-9.39
-10.38
-12.20
-14.75
-17.50
-19.65
-20.43
-19.41
-16.73
-13.04
-9.19
-5.84
-3.24
-1.27
0.35
1.79
3.05
4.00
4.59
4.98
5.46
6.33
7.64
9.18
10.51
11.19
10.93
9.75
7.96
6.04
4.42
3.28
2.53
1.80
0.67
-1.18
-3.73
-6.68
-9.41
-11.26
-11.71
-10.53
-7.86
-4.08
0.29
4.76
8.91
12.45
15.16
16.91
17.66
17.46
16.50
15.03
13.37
11.78
10.44
9.36
8.47
7.58
6.54
5.31
3.91
2.46
1.04
-0.33
-1.79
-3.51
-5.69
-8.41
-11.59
-15.00
-18.23
-20.84
-22.37
-22.49
-21.05
-18.16
-14.17
-9.56
-4.85
-0.48
3.20
6.00
7.79
8.60
8.56
7.92
6.99
6.03
5.20
4.51
3.90
3.26
2.58
1.87
1.17
0.48
-0.27
-1.19
-2.35
-3.81
-5.58
-7.62
-9.95
-12.54
-15.26
-17.86
-19.91
-20.91
-20.51
-18.54
-15.18
-10.88
-6.20
-1.72
2.15
5.14
7.20
8.37
8.78
8.52
7.72
6.50
5.02
3.49
2.11
1.01
0.23
-0.32
-0.80
-1.41
-2.22
-3.25
-4.45
-5.79
-7.26
-9.00
-11.14
-13.79
-16.90
-20.15
-22.97
-24.64
-24.52
-22.28
-18.08
-12.49
-6.33
-0.36
4.94
9.33
12.74
15.13
16.33
16.20
14.80
12.45
9.74
7.36
5.75
4.95
4.63
4.28
3.51
2.27
0.76
-0.66
-1.78
-2.65
-3.58
-4.96
-7.07
-9.95
-13.44
-17.22
-20.88
-23.97
-25.97
-26.39
-24.90
-21.47
-16.49
-10.67
-4.91
-0.03
3.51
5.60
6.54
6.82
6.92
7.18
7.71
8.45
9.23
9.85
10.18
10.17
9.83
9.27
8.59
7.92
7.30
6.71
5.99
4.95
3.39
1.20
-1.62
-4.93
-8.40
-11.57
-13.87
-14.74
-13.80
-11.01
-6.76
-1.75
3.17
7.33
10.35
12.20
13.05
13.10
12.50
11.37
9.83
8.15
6.68
5.70
5.34
5.46
5.72
5.76
5.32
4.38
3.10
1.72
0.44
-0.75
-2.00
-3.56
-5.73
-8.60
-12.02
-15.53
-18.38
-19.77
-19.11
-16.24
-11.53
-5.77
0.13
5.40
9.59
12.62
14.59
15.65
15.87
15.30
14.07
12.49
10.96
9.89
9.44
9.47
9.57
9.31
8.43
6.99
5.30
3.72
2.46
1.52
0.62
-0.58
-2.42
-5.07
-8.48
-12.28
-15.86
-18.46
-19.42
-18.35
-15.29
-10.68
-5.20
0.55
6.12
11.29
15.99
20.15
23.59
26.13
27.61
28.08
27.89
27.59
27.78
28.90
31.04
33.85
36.74
39.06
40.45
41.02
41.28
41.92
43.55
46.37
50.16
54.31
58.14
61.09
63.05
64.48
66.35
69.99
76.61
86.89
100.60
116.54
132.78
147.33
158.74
166.69
172.04
176.63
182.59
191.67
204.64
220.85
238.29
253.90
264.36
266.89
260.07
244.18
221.04
193.47
164.38
136.05
109.62
85.04
61.42
37.50
11.95
-16.24
-47.74
-82.67
-120.35
-159.10
-196.22
-228.60
-253.64
-270.28
-279.43
-283.49
-284.91
-284.83
-282.54
-276.12
-263.99
-246.19
-224.83
-203.01
-183.31
-166.53
-151.60
-136.47
-119.51
-100.60
-81.30
-64.11
-51.40
-44.25
-41.91
-41.87
-40.84
-35.83
-25.22
-9.13
10.87
32.62
54.36
74.97
93.98
110.99
125.33
135.93
141.70
142.19
137.92
130.57
122.37
115.58
111.47
109.93
109.36
107.22
101.03
89.57
73.82
57.16
44.58
41.22
50.29
71.51
100.58
130.11
151.56
157.69
144.74
113.97
71.76
28.17
-5.78
-21.63
-16.20
7.30
40.70
74.04
99.29
112.67
114.76
108.79
98.32
85.82
72.47
58.94
45.92
34.05
23.32
12.54
-0.38
-17.59
-40.37
-68.33
-99.28
-129.50
-154.66
-170.79
-175.29
-167.75
-150.13
-126.30
-100.82
-77.63
-58.93
-44.95
-34.39
-25.40
-16.40
-6.73
3.21
12.27
18.92
21.83
20.36
14.73
6.01
-4.25
-14.56
-23.90
-31.73
-37.92
-42.40
-45.11
-46.12
-45.86
-45.21
-45.36
-47.31
-51.43
-57.24
-63.69
-69.60
-74.19
-77.32
-79.37
-80.88
-82.23
-83.34
-83.78
-82.91
-80.16
-75.32
-68.58
-60.52
-51.93
-43.59
-36.08
-29.67
-24.28
-19.65
-15.44
-11.38
-7.27
-2.95
1.68
6.72
12.25
18.19
24.32
30.16
35.15
38.82
41.01
42.02
42.61
43.70
46.05
49.95
55.11
60.83
66.33
71.01
74.66
77.38
79.33
80.67
81.45
81.69
81.52
81.10
80.41
78.95
75.70
69.23
58.33
42.52
22.48
-0.09
-23.04
-44.34
-62.70
-77.53
-88.79
-96.51
-100.64
-101.21
-98.73
-94.45
-90.33
-88.59
-91.05
-98.45
-110.31
-125.01
-140.47
-154.83
-167.01
-176.93
-185.13
-192.32
-198.93
-205.20
-211.53
-218.71
-227.63
-238.37
-249.31
-257.02
-257.07
-245.96
-222.81
-189.77
-151.03
-110.75
-71.49
-33.89
2.10
35.80
65.18
87.70
101.98
108.91
111.54
113.54
117.49
124.12
132.64
142.03
151.90
162.37
173.14
182.65
188.05
186.32
175.58
155.87
128.92
97.11
62.59
26.87
-8.80
-43.00
-73.94
-99.84
-119.59
-133.26
-142.29
-149.29
-157.58
-170.54
-190.79
-219.16
-253.97
-290.87
-323.78
-346.72
-355.74
-350.20
-332.50
-306.69
-276.57
-244.39
-210.63
-174.80
-136.48
-95.81
-53.38
-9.81
34.38
78.26
119.99
156.76
185.55
204.41
213.30
213.81
208.06
197.46
182.44
163.37
141.99
121.98
108.09
103.93
109.93
122.63
135.93
143.47
140.75
126.06
100.03
64.39
20.94
-28.85
-83.48
-140.88
-198.09
-251.40
-297.07
-332.34
-356.34
-370.32
-377.11
-379.63
-379.40
-375.74
-366.08
-347.46
-318.28
-279.39
-233.93
-186.38
-141.14
-101.49
-69.21
-44.52
-26.44
-13.25
-3.24
4.81
11.22
15.83
18.80
21.36
26.11
36.04
53.34
78.00
107.63
138.27
165.90
187.87
203.36
213.02
218.10
219.63
218.23
214.22
208.08
200.41
191.66
181.68
169.58
154.17
134.73
111.66
86.64
61.95
39.64
20.91
6.02
-4.97
-11.58
-12.75
-7.47
4.17
20.26
37.21
50.90
58.13
57.85
51.45
41.98
33.07
27.82
28.15
34.72
47.01
63.81
83.27
103.13
121.00
134.65
142.63
144.79
142.55
138.65
136.22
137.54
142.91
150.35
156.20
156.54
148.97
133.41
112.12
88.69
66.51
47.72
32.84
21.23
11.82
3.78
-3.26
-9.46
-14.92
-19.94
-24.86
-29.81
-34.66
-38.98
-42.43
-44.94
-46.94
-49.25
-52.66
-57.54
-63.33
-68.51
-70.86
-68.17
-59.04
-43.51
-23.21
-1.04
19.84
36.87
48.78
55.74
58.78
59.24
58.17
56.22
53.69
50.92
48.35
46.45
45.61
45.79
46.65
47.65
48.32
48.56
48.60
48.93
49.98
51.88
54.29
56.61
58.12
58.29
56.87
53.91
49.61
44.36
38.72
33.42
29.30
27.11
27.27
29.74
33.96
39.10
44.30
48.89
52.51
55.06
56.60
57.29
57.27
56.70
55.66
54.33
52.83
51.39
50.25
49.59
49.45
49.72
50.20
50.71
51.16
51.62
52.21
52.94
53.67
54.09
53.80
52.44
49.89
46.27
41.95
37.44
33.18
29.41
26.09
22.92
19.60
16.00
12.30
8.86
6.08
4.13
2.90
2.14
1.51
0.86
0.21
-0.31
-0.56
-0.60
-0.63
-0.90
-1.61
-2.76
-4.13
-5.44
-6.46
-7.15
-7.60
-8.10
-8.84
-9.92
-11.23
-12.53
-13.59
-14.31
-14.77
-15.18
-15.75
-16.52
-17.41
-18.25
-18.91
-19.35
-19.68
-20.00
-20.43
-20.92
-21.40
-21.79
-22.10
-22.48
-23.19
-24.37
-26.03
-27.91
-29.60
-30.63
-30.75
-29.95
-28.45
-26.67
-24.98
-23.60
-22.54
-21.63
-20.68
-19.61
-18.47
-17.42
-16.64
-16.19
-15.96
-15.78
-15.47
-14.92
-14.17
-13.29
-12.44
-11.68
-11.04
-10.51
-10.02
-9.56
-9.19
-9.03
-9.24
-9.85
-10.81
-11.90
-12.87
-13.53
-13.82
-13.87
-13.83
-13.86
-14.00
-14.20
-14.38
-14.55
-14.78
-15.20
-15.88
-16.78
-17.75
-18.56
-18.98
-18.88
-18.27
-17.23
-16.00
-14.79
-13.80
-13.16
-12.85
-12.82
-12.94
-13.10
-13.20
-13.13
-12.75
-11.93
-10.62
-8.93
-7.08
-5.44
-4.29
-3.68
-3.44
-3.20
-2.67
-1.78
-0.77
-0.01
0.22
-0.08
-0.62
-1.00
-0.93
-0.36
0.49
1.35
1.98
2.32
2.41
2.33
2.12
1.77
1.20
0.46
-0.38
-1.19
-1.87
-2.37
-2.77
-3.21
-3.76
-4.54
-5.48
-6.47
-7.31
-7.80
-7.85
-7.53
-7.07
-6.81
-6.98
-7.66
-8.71
-9.86
-10.81
-11.38
-11.58
-11.52
-11.37
-11.20
-10.97
-10.50
-9.69
-8.56
-7.32
-6.24
-5.60
-5.40
-5.47
-5.53
-5.38
-5.00
-4.56
-4.33
-4.49
-5.07
-5.92
-6.80
-7.60
-8.34
-9.23
-10.48
-12.18
-14.20
-16.22
-17.90
-19.01
-19.54
-19.70
-19.79
-20.08
-20.64
-21.38
-22.08
-22.50
-22.58
-22.41
-22.22
-22.22
-22.49
-22.94
-23.41
-23.75
-23.89
-23.80
-23.57
-23.09
-22.27
-20.96
-19.00
-16.46
-13.54
-10.59
-8.00
-6.05
-4.84
-4.31
-4.31
-4.61
-5.10
-5.73
-6.55
-7.59
-8.78
-9.94
-10.91
-11.59
-12.12
-12.77
-13.81
-15.24
-16.73
-17.71
-17.56
-16.04
-13.39
-10.24
-7.45
-5.58
-4.82
-4.88
-5.24
-5.46
-5.36
-5.04
-4.70
-4.47
-4.28
-3.93
-3.21
-2.05
-0.61
0.73
1.62
1.74
1.08
-0.16
-1.60
-2.84
-3.66
-4.05
-4.19
-4.23
-4.21
-4.00
-3.47
-2.60
-1.66
-1.06
-1.26
-2.34
-4.06
-5.82
-6.95
-7.03
-6.00
-4.17
-2.02
0.07
1.90
3.52
5.04
6.55
8.05
9.41
10.52
11.34
11.91
12.42
12.99
13.66
14.36
14.86
14.98
14.67
14.07
13.48
13.16
13.20
13.47
13.77
13.83
13.60
13.15
12.63
12.19
11.79
11.31
10.56
9.52
8.26
7.02
6.08
5.71
6.10
7.38
9.58
12.62
16.29
20.30
24.38
28.28
31.86
34.95
37.40
39.14
40.22
40.96
41.82
43.30
45.48
47.96
49.81
49.91
47.48
42.41
35.38
27.58
20.12
13.59
7.71
1.60
-5.76
-14.94
-25.69
-37.05
-47.84
-57.26
-65.35
-72.95
-81.36
-91.79
-104.92
-120.71
-138.32
-155.99
-171.02
-180.07
-179.84
-168.13
-144.87
-112.38
-74.77
-36.63
-1.79
27.37
49.89
65.77
75.53
80.03
80.37
77.82
73.59
68.60
63.49
58.74
54.83
52.13
50.63
49.60
47.56
42.79
33.73
19.48
-0.15
-24.78
-53.42
-84.14
-113.67
-137.48
-150.48
-148.38
-129.07
-93.29
-44.66
11.27
68.26
120.71
164.78
199.07
224.84
245.51
265.38
287.80
313.62
340.49
363.66
377.76
378.85
365.68
339.65
303.84
261.51
215.29
166.86
117.37
67.67
18.45
-30.04
-78.20
-126.78
-176.22
-225.90
-273.91
-317.32
-353.12
-379.14
-394.73
-400.74
-398.98
-391.51
-379.85
-364.77
-346.22
-323.69
-296.66
-264.99
-229.10
-190.03
-149.15
-107.82
-67.03
-27.31
11.22
48.33
83.43
115.37
142.78
164.62
180.67
191.62
198.81
203.55
206.65
208.30
208.32
206.62
203.48
199.45
194.96
190.02
184.13
176.71
167.51
156.97
146.11
136.11
127.68
120.79
114.75
108.67
102.00
94.83
87.87
81.99
77.81
75.21
73.42
71.26
67.75
62.64
56.70
51.63
49.52
52.12
60.21
73.18
89.21
105.64
119.67
129.07
132.54
130.07
122.77
112.68
102.20
93.46
87.53
84.05
81.24
76.64
68.14
54.88
37.65
18.38
-0.70
-18.01
-33.00
-46.08
-57.86
-68.67
-78.27
-86.09
-91.73
-95.23
-97.19
-98.57
-100.48
-104.01
-110.02
-118.99
-130.75
-144.36
-158.11
-169.91
-177.88
-180.83
-178.54
-171.74
-161.74
-150.14
-138.55
-128.38
-120.75
-116.13
-114.23
-113.87
-113.34
-110.98
-105.83
-98.07
-88.92
-80.13
-73.23
-68.92
-66.91
-66.18
-65.53
-64.13
-61.80
-59.00
-56.58
-55.41
-56.02
-58.49
-62.49
-67.33
-72.37
-77.07
-81.23
-84.98
-88.67
-92.73
-97.56
-103.31
-109.99
-117.47
-125.63
-134.43
-144.01
-154.59
-166.47
-179.97
-195.37
-212.91
-232.63
-254.12
-276.53
-298.64
-319.17
-337.19
-352.11
-363.54
-370.82
-372.91
-368.54
-356.91
-338.33
-314.37
-287.49
-260.11
-233.82
-209.07
-185.45
-162.39
-139.68
-117.60
-96.73
-77.49
-59.87
-43.43
-27.52
-11.53
4.85
21.59
38.40
54.94
70.94
86.33
101.21
115.86
130.68
146.19
162.95
181.29
201.02
221.06
239.46
253.78
261.85
262.51
256.12
244.56
230.76
217.86
208.52
204.26
205.16
209.94
216.35
221.78
223.90
221.28
213.62
201.72
187.02
171.20
155.88
142.37
131.66
124.47
121.21
122.05
126.97
135.67
147.50
161.26
175.28
187.48
195.92
199.27
197.20
190.45
180.44
168.83
156.99
145.74
135.36
125.79
116.84
108.33
100.13
92.15
84.20
76.08
67.54
58.40
48.71
38.68
28.83
19.80
12.32
7.05
4.29
3.94
5.45
8.10
11.33
14.89
18.85
23.30
27.97
32.16
34.91
35.58
34.04
30.87
26.95
23.00
19.37
16.03
12.88
9.95
7.44
5.49
3.94
2.36
0.15
-3.12
-7.47
-12.60
-17.93
-22.90
-27.04
-30.04
-31.82
-32.48
-32.36
-31.98
-31.88
-32.39
-33.51
-34.90
-36.04
-36.52
-36.28
-35.66
-35.25
-35.50
-36.46
-37.79
-38.92
-39.48
-39.53
-39.54
-40.03
-41.16
-42.68
-43.95
-44.48
-44.18
-43.43
-42.84
-42.61
-42.41
-41.37
-38.62
-33.85
-27.54
-20.83
-14.91
-10.49
-7.46
-5.04
-2.23
1.60
6.44
11.59
16.05
18.97
20.03
19.58
18.35
17.13
16.36
16.04
15.79
15.24
14.30
13.24
12.56
12.66
13.52
14.70
15.40
14.91
12.78
9.09
4.35
-0.75
-5.58
-9.72
-12.91
-14.93
-15.56
-14.61
-12.07
-8.20
-3.61
0.89
4.57
6.93
7.90
7.69
6.74
5.50
4.32
3.41
2.87
2.72
2.93
3.43
4.13
4.90
5.64
6.29
6.75
7.02
7.11
7.10
7.10
7.18
7.27
7.16
6.49
5.01
2.73
0.05
-2.39
-3.90
-4.11
-3.15
-1.54
0.02
1.09
1.58
1.77
2.05
2.59
3.21
3.50
3.05
1.81
0.18
-1.18
-1.66
-1.07
0.25
1.55
2.15
1.70
0.41
-1.13
-2.37
-3.05
-3.37
-3.82
-4.84
-6.60
-8.93
-11.48
-13.87
-15.90
-17.50
-18.64
-19.20
-18.94
-17.61
-15.20
-11.94
-8.47
-5.52
-3.69
-3.16
-3.64
-4.54
-5.24
-5.41
-5.11
-4.62
-4.31
-4.36
-4.78
-5.49
-6.42
-7.59
-9.04
-10.70
-12.31
-13.46
-13.76
-13.00
-11.43
-9.59
-8.22
-8.03
-9.32
-12.06
-15.86
-20.09
-24.16
-27.50
-29.73
-30.59
-29.98
-27.91
-24.53
-20.16
-15.19
-10.11
-5.44
-1.60
1.02
2.29
2.23
1.14
-0.48
-2.11
-3.25
-3.63
-3.19
-2.10
-0.64
0.86
2.12
2.97
3.35
3.23
2.66
1.63
0.19
-1.53
-3.44
-5.42
-7.54
-10.03
-13.20
-17.18
-21.69
-25.98
-28.94
-29.60
-27.47
-22.86
-16.78
-10.52
-5.23
-1.51
0.68
1.74
2.23
2.49
2.67
2.76
2.74
2.69
2.74
3.01
3.50
4.03
4.37
4.29
3.72
2.82
1.74
0.61
-0.69
-2.43
-4.81
-7.78
-10.94
-13.76
-15.77
-16.88
-17.39
-17.83
-18.80
-20.63
-23.32
-26.54
-29.59
-31.60
-31.67
-29.11
-23.73
-15.96
-6.79
2.56
10.96
17.80
22.94
26.61
29.20
30.97
32.12
32.77
33.02
33.02
32.91
32.75
32.60
32.55
32.64
32.96
33.51
34.14
34.55
34.43
33.46
31.54
28.78
25.43
21.86
18.28
14.79
11.31
7.68
3.76
-0.56
-5.31
-10.40
-15.60
-20.43
-24.31
-26.53
-26.55
-24.12
-19.53
-13.53
-7.22
-1.71
2.15
4.03
4.18
3.25
2.07
1.28
1.21
1.74
2.62
3.49
4.28
5.11
6.20
7.65
9.29
10.69
11.32
10.85
9.30
7.04
4.61
2.43
0.65
-0.87
-2.43
-4.28
-6.54
-9.21
-12.29
-15.80
-19.81
-24.22
-28.58
-32.07
-33.66
-32.48
-28.22
-21.29
-12.68
-3.69
4.64
11.67
17.29
21.70
25.15
27.82
29.66
30.63
30.73
30.16
29.34
28.70
28.56
28.93
29.59
30.15
30.17
29.41
27.82
25.57
22.94
20.24
17.70
15.40
13.25
11.14
8.93
6.52
3.88
0.92
-2.56
-6.91
-12.36
-18.85
-25.73
-31.77
-35.55
-35.91
-32.59
-26.31
-18.55
-10.95
-4.71
-0.18
3.00
5.52
7.93
10.44
12.80
14.72
16.01
16.82
17.54
18.49
19.78
21.14
22.08
22.24
21.54
20.33
19.18
18.55
18.58
18.91
18.94
17.99
15.79
12.55
8.82
5.31
2.45
0.30
-1.57
-3.70
-6.58
-10.44
-15.19
-20.51
-25.88
-30.59
-33.94
-35.19
-33.87
-29.96
-23.96
-16.84
-9.71
-3.51
1.26
4.63
6.95
8.70
10.17
11.44
12.41
12.99
13.21
13.19
13.09
12.90
12.35
11.02
8.46
4.38
-1.21
-8.05
-15.78
-23.98
-32.21
-39.96
-46.61
-51.52
-54.29
-54.89
-53.93
-52.53
-52.01
-53.61
-58.06
-65.53
-75.79
-88.49
-103.37
-120.24
-138.67
-157.61
-175.22
-189.20
-197.45
-198.70
-192.66
-179.87
-161.13
-137.34
-109.69
-79.97
-50.79
-25.07
-5.13
8.26
16.27
21.66
27.69
37.07
51.10
69.58
91.12
113.62
134.84
152.68
165.56
172.54
173.52
169.14
160.65
149.58
137.56
126.04
116.13
108.50
103.37
100.49
99.32
99.18
99.38
99.38
98.82
97.58
95.75
93.58
91.20
88.43
84.55
78.28
68.11
52.74
31.66
5.67
-23.05
-51.31
-75.59
-92.92
-101.57
-101.39
-93.57
-80.14
-63.29
-44.97
-26.71
-9.70
5.04
16.62
24.44
28.38
28.93
27.06
23.83
20.05
16.05
11.80
7.23
2.56
-1.68
-4.93
-6.93
-7.89
-8.13
-7.60
-5.57
-0.73
8.05
21.01
37.05
54.07
69.90
83.36
94.76
105.66
117.94
132.71
149.66
167.11
182.72
194.40
200.99
202.63
200.71
197.62
196.12
198.54
205.76
216.49
227.30
233.36
229.98
213.97
184.68
144.18
96.83
48.35
4.64
-29.30
-50.54
-58.80
-56.44
-47.65
-37.09
-28.47
-23.70
-22.96
-25.30
-29.49
-34.42
-39.20
-43.01
-45.09
-44.96
-42.64
-38.74
-34.20
-30.03
-26.81
-24.59
-22.90
-21.02
-18.33
-14.65
-10.30
-6.01
-2.54
-0.39
0.46
0.45
0.26
0.45
1.27
2.55
3.88
4.71
4.61
3.32
0.86
-2.50
-6.21
-9.54
-11.86
-12.85
-12.83
-12.72
-13.75
-16.93
-22.59
-30.19
-38.62
-46.78
-54.02
-60.38
-66.34
-72.38
-78.62
-84.79
-90.38
-95.01
-98.56
-101.17
-102.91
-103.60
-102.76
-99.87
-94.70
-87.58
-79.35
-71.13
-63.90
-58.21
-54.19
-51.64
-50.32
-50.09
-50.94
-52.91
-56.04
-60.36
-65.89
-72.71
-80.93
-90.59
-101.55
-113.46
-125.85
-138.35
-150.84
-163.58
-177.04
-191.61
-207.27
-223.57
-239.78
-255.38
-270.26
-284.65
-298.75
-312.42
-325.21
-336.69
-346.73
-355.39
-362.43
-366.72
-366.19
-358.53
-342.35
-318.03
-287.89
-255.19
-222.77
-192.08
-162.97
-134.37
-105.16
-74.72
-42.90
-9.50
25.96
64.18
105.51
149.26
193.41
234.71
269.59
295.12
309.92
314.42
310.47
300.53
286.95
271.50
255.50
240.23
227.14
217.78
213.16
213.13
216.27
220.32
223.22
224.02
223.28
222.52
223.12
225.21
227.34
226.92
221.37
209.29
190.95
167.97
142.49
116.38
90.93
66.96
45.19
26.36
11.02
-0.80
-9.87
-17.52
-24.94
-32.39
-38.68
-41.34
-37.63
-25.86
-6.48
17.71
42.37
63.14
77.22
84.22
85.94
85.27
84.79
85.71
87.77
89.90
91.03
90.63
88.76
85.65
81.28
75.32
67.36
57.35
45.81
33.72
22.12
11.68
2.46
-5.99
-14.23
-22.47
-30.32
-36.93
-41.35
-42.97
-41.86
-38.85
-35.25
-32.42
-31.32
-32.09
-33.98
-35.65
-35.58
-32.64
-26.42
-17.29
-6.17
5.79
17.54
28.22
37.22
44.03
48.32
49.86
48.69
45.18
40.02
34.27
29.22
26.14
25.94
28.80
34.09
40.56
47.01
52.91
58.74
65.59
74.23
84.15
93.15
98.04
96.02
86.09
69.84
50.82
33.02
19.13
9.56
2.66
-4.12
-12.79
-23.87
-36.48
-48.97
-59.91
-68.56
-74.92
-79.30
-81.84
-82.47
-81.11
-78.09
-74.29
-70.97
-69.12
-68.89
-69.26
-68.38
-64.32
-55.91
-43.34
-28.26
-13.15
-0.59
7.55
10.55
8.81
3.46
-4.15
-12.83
-21.80
-30.58
-38.79
-45.96
-51.38
-54.17
-53.46
-48.61
-39.53
-27.09
-13.21
-0.83
6.79
6.90
-1.64
-17.87
-38.87
-60.60
-79.11
-91.56
-96.70
-94.76
-86.95
-74.97
-60.65
-45.80
-32.07
-20.61
-11.86
-5.37
0.00
5.65
12.52
20.65
29.02
35.82
39.14
37.69
31.31
21.02
8.78
-3.18
-12.88
-19.07
-21.38
-20.24
-16.72
-12.10
-7.61
-4.12
-2.08
-1.47
-1.98
-3.22
-4.81
-6.42
-7.76
-8.58
-8.74
-8.28
-7.54
-7.08
-7.46
-9.08
-11.92
-15.61
-19.52
-23.03
-25.69
-27.30
-27.97
-27.97
-27.69
-27.50
-27.80
-28.87
-30.87
-33.67
-36.88
-39.84
-41.77
-42.00
-40.17
-36.32
-30.94
-24.81
-18.73
-13.37
-9.04
-5.66
-2.91
-0.40
2.13
4.74
7.35
9.86
12.22
14.50
16.81
19.16
21.44
23.37
24.64
25.02
24.44
22.99
20.87
18.30
15.44
12.39
9.22
5.98
2.75
-0.35
-3.27
-6.03
-8.69
-11.30
-13.70
-15.58
-16.42
-15.71
-13.25
-9.23
-4.29
0.75
5.15
8.52
10.86
12.42
13.53
14.37
15.00
15.44
15.74
16.04
16.48
17.12
17.89
18.59
18.96
18.77
17.87
16.23
13.95
11.25
8.43
5.76
3.42
1.35
-0.63
-2.81
-5.40
-8.44
-11.87
-15.57
-19.40
-23.14
-26.43
-28.67
-29.16
-27.38
-23.29
-17.40
-10.69
-4.18
1.36
5.71
9.02
11.60
13.68
15.18
15.88
15.57
14.26
12.27
10.12
8.31
7.14
6.62
6.48
6.33
5.85
4.88
3.48
1.88
0.32
-1.01
-2.05
-2.94
-3.85
-5.01
-6.62
-8.83
-11.65
-14.94
-18.35
-21.34
-23.29
-23.60
-21.91
-18.23
-12.98
-6.96
-1.09
3.80
7.29
9.43
10.66
11.59
12.68
14.10
15.67
16.97
17.61
17.48
16.74
15.83
15.13
14.84
14.82
14.70
14.12
12.88
11.11
9.10
7.19
5.51
3.90
2.10
-0.21
-3.15
-6.65
-10.53
-14.58
-18.63
-22.42
-25.55
-27.48
-27.64
-25.64
-21.54
-15.87
-9.58
-3.68
0.97
4.01
5.50
5.88
5.66
5.25
4.80
4.27
3.62
2.90
2.38
2.38
3.14
4.65
6.60
8.47
9.72
9.98
9.17
7.48
5.24
2.79
0.31
-2.21
-4.83
-7.56
-10.34
-13.05
-15.64
-18.19
-20.82
-23.55
-26.13
-27.94
-28.25
-26.50
-22.55
-16.86
-10.35
-4.04
1.20
4.96
7.21
8.23
8.41
8.08
7.47
6.75
6.07
5.54
5.29
5.38
5.75
6.22
6.52
6.36
5.57
4.12
2.22
0.20
-1.59
-2.94
-3.91
-4.75
-5.88
-7.60
-10.05
-13.18
-16.78
-20.63
-24.44
-27.83
-30.30
-31.25
-30.22
-27.05
-22.06
-16.01
-9.82
-4.35
-0.13
2.65
4.09
4.43
3.91
2.76
1.14
-0.76
-2.77
-4.72
-6.48
-8.01
-9.34
-10.68
-12.33
-14.61
-17.68
-21.48
-25.73
-30.04
-34.08
-37.86
-41.72
-46.22
-51.91
-59.04
-67.43
-76.41
-85.03
-92.26
-97.27
-99.68
-99.65
-97.93
-95.65
-94.01
-94.06
-96.37
-100.99
-107.55
-115.40
-123.83
-132.15
-139.73
-146.01
-150.35
-151.91
-149.55
-141.82
-127.20
-104.71
-74.63
-38.98
-1.37
33.70
62.11
81.25
90.66
91.89
87.83
81.91
77.48
77.35
83.41
96.27
114.92
136.79
158.30
175.86
186.99
190.83
188.07
180.33
169.26
156.13
141.83
127.27
113.69
102.84
96.61
96.57
103.71
118.25
139.93
168.15
201.94
239.62
278.41
314.26
342.38
358.30
359.25
345.06
318.34
283.53
245.34
207.38
171.33
137.02
103.19
68.30
31.56
-6.77
-45.21
-81.38
-112.65
-136.97
-153.49
-162.85
-166.80
-167.39
-166.25
-164.12
-160.99
-156.68
-151.29
-145.33
-139.50
-134.28
-129.67
-125.26
-120.52
-115.06
-108.81
-102.09
-95.39
-89.23
-84.00
-79.81
-76.51
-73.80
-71.31
-68.84
-66.39
-64.17
-62.39
-61.14
-60.23
-59.31
-58.12
-56.67
-55.30
-54.52
-54.70
-55.82
-57.33
-58.36
-57.99
-55.68
-51.38
-45.53
-38.84
-31.96
-25.34
-19.18
-13.60
-8.71
-4.62
-1.40
1.03
2.88
4.35
5.50
6.17
6.07
4.95
2.72
-0.42
-4.12
-8.01
-11.84
-15.53
-19.15
-22.81
-26.49
-30.01
-33.09
-35.27
-36.13
-35.31
-32.60
-28.12
-22.30
-15.89
-9.69
-4.33
0.14
4.22
8.79
14.66
22.23
31.28
41.28
51.69
62.41
73.78
86.28
100.20
115.23
130.44
144.55
156.23
164.53
168.87
169.16
165.59
158.68
149.24
138.23
126.75
115.81
106.14
98.16
91.82
86.75
82.43
78.29
73.92
69.09
63.73
57.84
51.46
44.66
37.44
29.90
22.14
14.39
7.02
0.41
-5.11
-9.43
-12.67
-15.13
-17.13
-18.89
-20.41
-21.58
-22.32
-22.77
-23.24
-24.15
-25.82
-28.27
-31.30
-34.55
-37.73
-40.74
-43.66
-46.60
-49.54
-52.25
-54.32
-55.36
-55.17
-53.81
-51.64
-49.13
-46.70
-44.61
-42.91
-41.50
-40.25
-39.14
-38.23
-37.66
-37.47
-37.56
-37.67
-37.50
-36.83
-35.56
-33.81
-31.83
-29.92
-28.35
-27.27
-26.67
-26.47
-26.48
-26.46
-26.16
-25.42
-24.21
-22.67
-21.05
-19.63
-18.64
-18.12
-17.96
-17.91
-17.69
-17.10
-16.12
-14.89
-13.70
-12.84
-12.51
-12.72
-13.27
-13.88
-14.29
-14.34
-14.02
-13.43
-12.71
-12.00
-11.41
-10.97
-10.65
-10.43
-10.19
-9.89
-9.53
-9.19
-8.96
-8.96
-9.21
-9.65
-10.20
-10.81
-11.45
-12.12
-12.82
-13.45
-13.96
-14.27
-14.44
-14.56
-14.72
-14.96
-15.24
-15.54
-15.84
-16.23
-16.75
-17.43
-18.22
-19.02
-19.67
-20.06
-20.07
-19.67
-18.91
-17.95
-17.01
-16.25
-15.73
-15.33
-14.83
-14.03
-12.86
-11.46
-10.06
-8.91
-8.07
-7.47
-6.92
-6.28
-5.46
-4.56
-3.67
-2.90
-2.25
-1.62
-0.98
-0.35
0.16
0.40
0.21
-0.38
-1.22
-2.07
-2.68
-3.04
-3.24
-3.55
-4.12
-4.97
-5.89
-6.60
-6.88
-6.68
-6.14
-5.53
-5.05
-4.81
-4.72
-4.58
-4.22
-3.57
-2.66
-1.68
-0.81
-0.15
0.31
0.67
1.07
1.52
1.91
2.06
1.80
1.14
0.30
-0.44
-0.81
-0.78
-0.47
-0.18
-0.10
-0.29
-0.63
-0.95
-1.15
-1.27
-1.45
-1.82
-2.38
-3.04
-3.65
-4.08
-4.39
-4.67
-5.10
-5.78
-6.69
-7.67
-8.45
-8.78
-8.44
-7.38
-5.71
-3.73
-1.84
-0.40
0.41
0.63
0.53
0.44
0.59
0.97
1.39
1.59
1.49
1.19
1.01
1.19
1.84
2.75
3.59
4.06
4.06
3.74
3.34
3.06
2.92
2.77
2.45
1.90
1.20
0.57
0.21
0.24
0.60
1.19
1.79
2.24
2.48
2.50
2.40
2.27
2.15
1.99
1.69
1.15
0.37
-0.47
-1.13
-1.40
-1.18
-0.61
0.06
0.53
0.70
0.60
0.39
0.17
-0.03
-0.26
-0.58
-0.94
-1.21
-1.24
-0.93
-0.31
0.45
1.18
1.68
1.85
1.69
1.31
0.88
0.56
0.42
0.41
0.44
0.46
0.58
0.93
1.62
2.54
3.41
3.87
3.76
3.17
2.45
2.01
2.03
2.41
2.80
2.76
2.05
0.69
-0.99
-2.54
-3.51
-3.57
-2.69
-1.00
1.19
3.59
6.04
8.53
11.10
13.76
16.30
18.25
19.16
18.67
16.83
14.06
11.00
8.31
6.40
5.35
5.02
5.12
5.38
5.53
5.29
4.39
2.56
-0.31
-4.02
-8.11
-11.94
-14.96
-16.87
-17.79
-18.14
-18.38
-18.85
-19.49
-19.91
-19.53
-17.95
-15.22
-11.93
-9.06
-7.52
-7.71
-9.31
-11.34
-12.57
-12.14
-9.87
-6.42
-2.91
-0.45
0.33
-0.53
-2.57
-5.14
-7.80
-10.34
-12.75
-15.01
-17.03
-18.65
-19.76
-20.34
-20.50
-20.41
-20.29
-20.36
-20.87
-22.11
-24.28
-27.49
-31.62
-36.36
-41.25
-45.80
-49.63
-52.48
-54.31
-55.24
-55.60
-55.96
-56.98
-59.31
-63.26
-68.51
-74.10
-78.60
-80.50
-78.63
-72.46
-62.05
-47.92
-30.84
-11.66
8.68
29.05
48.10
64.29
76.23
82.93
84.12
80.34
72.79
62.94
52.27
42.00
33.00
25.84
20.86
18.19
17.65
18.71
20.43
21.79
21.95
20.63
18.25
15.66
13.82
13.24
13.89
15.18
16.35
16.80
16.33
15.18
13.81
12.61
11.75
11.16
10.70
10.27
9.85
9.43
8.93
8.17
7.01
5.49
3.91
2.73
2.39
3.05
4.52
6.27
7.70
8.36
8.12
7.22
6.11
5.21
4.74
4.62
4.52
4.05
2.91
1.08
-1.14
-3.29
-4.94
-5.82
-5.95
-5.61
-5.05
-4.43
-3.78
-2.97
-1.97
-0.83
0.25
1.06
1.54
1.84
2.26
3.06
4.35
5.96
7.58
8.88
9.71
10.16
10.46
10.86
11.42
12.00
12.36
12.25
11.64
10.62
9.40
8.16
6.98
5.85
4.73
3.61
2.54
1.61
0.85
0.22
-0.39
-1.10
-1.97
-2.93
-3.80
-4.29
-4.13
-3.16
-1.45
0.72
2.87
4.65
5.86
6.60
7.16
7.85
8.79
9.89
10.92
11.66
12.07
12.26
12.39
12.59
12.78
12.79
12.45
11.71
10.70
9.67
8.86
8.41
8.25
8.19
8.05
7.69
7.19
6.71
6.44
6.36
6.27
5.84
4.65
2.54
-0.48
-4.09
-7.78
-11.03
-13.47
-14.95
-15.54
-15.42
-14.79
-13.78
-12.52
-11.14
-9.87
-8.93
-8.50
-8.57
-8.96
-9.33
-9.46
-9.22
-8.75
-8.34
-8.27
-8.65
-9.39
-10.29
-11.08
-11.70
-12.28
-13.09
-14.50
-16.68
-19.65
-23.21
-27.09
-31.12
-35.33
-39.92
-45.16
-51.19
-57.90
-65.03
-72.32
-79.60
-86.99
-94.79
-103.25
-112.53
-122.46
-132.69
-142.77
-152.36
-161.23
-169.29
-176.56
-183.09
-189.11
-194.95
-200.98
-207.36
-213.66
-218.70
-220.68
-217.58
-207.88
-191.18
-168.41
-141.61
-113.16
-85.14
-58.76
-34.38
-11.73
9.59
29.91
49.57
68.98
88.58
108.67
128.82
147.90
164.21
176.14
182.78
184.19
181.23
175.07
166.71
156.91
146.27
135.54
125.60
117.26
110.94
106.41
103.00
99.93
96.65
93.09
89.42
85.84
82.38
78.76
74.55
69.32
62.82
55.17
46.85
38.70
31.63
26.40
23.29
22.02
21.91
22.12
22.06
21.53
20.60
19.41
17.92
15.85
12.82
8.69
3.71
-1.47
-6.05
-9.47
-11.66
-13.08
-14.56
-16.99
-21.08
-27.14
-35.06
-44.21
-53.54
-61.69
-67.32
-69.52
-68.12
-63.85
-58.11
-52.36
-47.67
-44.21
-41.40
-38.23
-33.87
-28.04
-21.09
-13.78
-6.84
-0.62
4.99
10.46
16.32
22.82
29.84
36.82
43.08
48.05
51.52
53.66
54.89
55.61
55.98
55.84
54.92
53.07
50.53
47.85
45.75
44.71
44.64
44.96
44.78
43.29
40.05
35.04
28.52
20.85
12.51
4.20
-3.08
-8.09
-9.73
-7.43
-1.53
6.76
15.72
23.71
29.70
33.48
35.49
36.43
36.87
37.08
37.07
36.79
36.36
36.06
36.22
36.94
38.04
39.07
39.43
38.76
37.02
34.53
31.77
29.18
26.95
24.97
22.91
20.40
17.24
13.50
9.52
5.77
2.69
0.44
-1.12
-2.49
-4.18
-6.65
-10.10
-14.46
-19.44
-24.57
-29.21
-32.52
-33.56
-31.55
-26.19
-17.84
-7.57
3.20
13.07
21.16
27.15
31.24
33.86
35.41
36.11
36.14
35.70
35.04
34.48
34.31
34.64
35.41
36.44
37.48
38.33
38.78
38.63
37.76
36.06
33.57
30.47
27.01
23.46
20.07
16.96
14.16
11.62
9.19
6.65
3.67
-0.12
-5.01
-10.88
-17.16
-22.72
-26.21
-26.57
-23.37
-17.15
-9.16
-0.95
6.22
11.71
15.60
18.33
20.38
22.05
23.31
24.06
24.29
24.14
23.87
23.65
23.48
23.16
22.44
21.24
19.73
18.27
17.29
16.97
17.16
17.38
17.08
15.89
13.78
11.11
8.41
6.07
4.19
2.49
0.45
-2.43
-6.45
-11.47
-16.90
-21.85
-25.31
-26.39
-24.63
-20.11
-13.46
-5.68
2.14
9.13
14.73
18.85
21.67
23.57
24.91
26.00
26.96
27.81
28.47
28.76
28.58
27.88
26.78
25.54
24.47
23.75
23.35
23.01
22.36
21.10
19.13
16.59
13.81
11.13
8.76
6.71
4.83
2.91
0.70
-1.98
-5.19
-8.89
-12.85
-16.63
-19.60
-21.03
-20.36
-17.36
-12.35
-6.09
0.40
6.13
10.54
13.55
15.47
16.78
17.87
18.90
19.81
20.50
20.88
21.03
21.12
21.31
21.68
22.15
22.54
22.61
22.22
21.34
20.07
18.56
16.94
15.23
13.35
11.22
8.85
6.34
3.84
1.45
-0.97
-3.66
-6.84
-10.50
-14.18
-17.09
-18.31
-17.22
-13.83
-8.78
-3.16
1.94
5.84
8.46
10.18
11.55
12.95
14.43
15.79
16.81
17.39
17.68
17.98
18.48
19.22
19.97
20.40
20.23
19.39
18.01
16.34
14.63
12.98
11.37
9.69
7.83
5.75
3.51
1.20
-1.08
-3.36
-5.78
-8.51
-11.57
-14.68
-17.24
-18.42
-17.54
-14.35
-9.27
-3.24
2.57
7.15
10.07
11.45
11.84
11.85
11.88
11.96
11.94
11.62
10.98
10.23
9.65
9.45
9.65
10.04
10.32
10.25
9.71
8.72
7.39
5.79
3.95
1.87
-0.42
-2.81
-5.14
-7.27
-9.17
-10.98
-12.95
-15.37
-18.29
-21.47
-24.27
-25.88
-25.57
-23.06
-18.64
-13.15
-7.59
-2.81
0.82
3.39
5.30
6.97
8.64
10.36
11.96
13.29
14.26
14.86
15.17
15.29
15.28
15.13
14.78
14.22
13.44
12.57
11.75
11.09
10.58
10.03
9.18
7.80
5.87
3.60
1.29
-0.77
-2.55
-4.31
-6.43
-9.28
-12.85
-16.75
-20.20
-22.30
-22.36
-20.16
-16.06
-10.81
-5.30
-0.26
3.92
7.16
9.55
11.22
12.19
12.45
12.05
11.17
10.09
9.10
8.35
7.78
7.20
6.43
5.43
4.33
3.38
2.73
2.38
2.06
1.45
0.30
-1.42
-3.52
-5.64
-7.52
-9.01
-10.14
-11.08
-11.98
-12.95
-14.03
-15.24
-16.61
-18.15
-19.76
-21.15
-21.82
-21.22
-18.93
-14.93
-9.66
-3.93
1.35
5.51
8.28
9.80
10.47
10.73
10.83
10.85
10.70
10.33
9.76
9.17
8.78
8.76
9.08
9.59
10.03
10.18
9.98
9.46
8.76
7.95
7.05
5.96
4.59
2.93
1.07
-0.80
-2.49
-3.89
-5.09
-6.29
-7.81
-9.84
-12.37
-15.05
-17.25
-18.30
-17.66
-15.21
-11.30
-6.61
-1.92
2.11
5.12
7.04
8.05
8.37
8.26
7.88
7.41
7.01
6.85
7.11
7.90
9.19
10.81
12.50
14.02
15.22
16.16
17.03
18.11
19.61
21.58
23.88
26.13
27.86
28.53
27.68
25.05
20.62
14.56
7.15
-1.27
-10.40
-19.89
-29.21
-37.65
-44.39
-48.76
-50.46
-49.69
-47.04
-43.26
-39.00
-34.70
-30.53
-26.61
-23.03
-19.98
-17.65
-16.19
-15.58
-15.64
-16.07
-16.55
-16.77
-16.56
-15.83
-14.63
-13.04
-11.21
-9.29
-7.50
-6.06
-5.14
-4.82
-5.00
-5.40
-5.68
-5.56
-4.96
-4.06
-3.21
-2.83
-3.25
-4.57
-6.70
-9.32
-12.00
-14.21
-15.40
-15.13
-13.16
-9.57
-4.85
0.23
4.77
8.11
9.95
10.52
10.38
10.13
10.17
10.52
10.91
11.01
10.62
9.84
8.94
8.26
7.92
7.83
7.69
7.16
6.08
4.51
2.68
0.88
-0.71
-2.10
-3.46
-4.97
-6.72
-8.64
-10.54
-12.26
-13.77
-15.16
-16.58
-18.05
-19.36
-20.09
-19.74
-17.96
-14.75
-10.53
-6.04
-2.04
0.86
2.50
3.08
3.05
2.86
2.79
2.91
3.09
3.29
3.49
3.78
4.27
4.94
5.66
6.18
6.29
5.96
5.28
4.48
3.73
3.07
2.40
1.55
0.38
-1.12
-2.83
-4.61
-6.40
-8.32
-10.60
-13.46
-16.85
-20.38
-23.34
-24.93
-24.57
-22.23
-18.39
-13.90
-9.71
-6.43
-4.22
-2.85
-1.87
-0.89
0.25
1.42
2.36
2.86
2.91
2.72
2.61
2.80
3.30
3.85
4.10
3.75
2.76
1.33
-0.22
-1.65
-2.93
-4.19
-5.59
-7.20
-8.90
-10.49
-11.77
-12.75
-13.65
-14.81
-16.55
-18.93
-21.63
-24.04
-25.39
-25.05
-22.78
-18.79
-13.66
-8.10
-2.79
1.81
5.48
8.16
9.92
10.82
10.98
10.52
9.61
8.50
7.43
6.66
6.35
6.53
7.10
7.81
8.41
8.66
8.50
7.92
7.01
5.80
4.27
2.38
0.14
-2.30
-4.69
-6.79
-8.49
-9.89
-11.28
-12.97
-15.20
-17.90
-20.70
-23.01
-24.20
-23.87
-21.93
-18.67
-14.60
-10.28
-6.17
-2.55
0.46
2.84
4.63
5.90
6.80
7.50
8.20
9.06
10.10
11.21
12.23
12.95
13.31
13.36
13.26
13.19
13.21
13.21
13.00
12.42
11.43
10.21
8.99
7.95
7.11
6.32
5.37
4.17
2.72
1.12
-0.55
-2.33
-4.24
-6.23
-7.99
-8.99
-8.71
-6.90
-3.67
0.43
4.68
8.42
11.23
13.05
14.06
14.50
14.59
14.42
13.99
13.30
12.41
11.49
10.75
10.37
10.39
10.67
10.95
10.93
10.44
9.44
8.06
6.48
4.86
3.25
1.62
-0.12
-2.02
-4.10
-6.32
-8.62
-11.01
-13.49
-16.06
-18.62
-20.86
-22.35
-22.62
-21.39
-18.74
-15.15
-11.33
-8.00
-5.56
-4.02
-3.07
-2.32
-1.53
-0.70
-0.02
0.28
0.14
-0.28
-0.68
-0.75
-0.35
0.39
1.21
1.74
1.74
1.18
0.16
-1.14
-2.54
-3.95
-5.36
-6.78
-8.22
-9.68
-11.13
-12.60
-14.15
-15.90
-17.87
-20.01
-22.02
-23.42
-23.64
-22.26
-19.24
-14.95
-10.07
-5.39
-1.46
1.56
3.85
5.81
7.76
9.73
11.55
12.87
13.46
13.37
12.91
12.55
12.68
13.42
14.60
15.85
16.76
17.05
16.62
15.47
13.68
11.31
8.42
5.16
1.73
-1.59
-4.56
-7.02
-8.98
-10.59
-12.08
-13.69
-15.52
-17.46
-19.18
-20.19
-20.02
-18.47
-15.64
-11.96
-8.05
-4.42
-1.38
1.07
3.16
5.15
7.19
9.22
11.01
12.27
12.83
12.65
11.92
10.85
9.67
8.47
7.28
6.11
5.01
4.06
3.28
2.61
1.87
0.81
-0.70
-2.66
-4.92
-7.19
-9.23
-10.91
-12.27
-13.50
-14.88
-16.64
-18.91
-21.61
-24.48
-27.09
-28.96
-29.66
-28.89
-26.60
-23.01
-18.57
-13.85
-9.41
-5.64
-2.70
-0.46
1.36
3.05
4.80
6.60
8.33
9.85
11.08
12.10
13.02
13.92
14.79
15.53
16.00
16.12
15.92
15.49
14.93
14.28
13.50
12.48
11.15
9.48
7.57
5.57
3.66
2.02
0.72
-0.25
-1.10
-2.13
-3.66
-5.88
-8.76
-12.02
-15.15
-17.57
-18.74
-18.34
-16.31
-12.92
-8.66
-4.15
0.05
3.54
6.18
8.07
9.45
10.60
11.69
12.79
13.83
14.75
15.50
16.16
16.80
17.51
18.23
18.83
19.11
18.94
18.30
17.37
16.40
15.61
15.11
14.81
14.51
13.97
13.05
11.78
10.29
8.83
7.54
6.45
5.47
4.43
3.13
1.44
-0.71
-3.27
-6.09
-8.88
-11.26
-12.85
-13.34
-12.64
-10.89
-8.45
-5.74
-3.11
-0.78
1.13
2.57
3.50
3.93
3.90
3.56
3.11
2.71
2.49
2.47
2.60
2.77
2.88
2.83
2.53
1.95
1.11
0.08
-1.03
-2.15
-3.25
-4.35
-5.52
-6.80
-8.11
-9.33
-10.32
-11.01
-11.47
-11.85
-12.34
-13.12
-14.27
-15.80
-17.65
-19.67
-21.59
-23.05
-23.64
-22.98
-20.89
-17.49
-13.19
-8.63
-4.41
-0.96
1.60
3.40
4.67
5.60
6.25
6.58
6.53
6.16
5.64
5.19
4.98
5.00
5.07
4.97
4.54
3.80
2.96
2.27
1.85
1.62
1.30
0.59
-0.66
-2.34
-4.18
-5.82
-7.06
-7.94
-8.68
-9.64
-11.09
-13.13
-15.67
-18.41
-20.92
-22.73
-23.45
-22.88
-21.04
-18.18
-14.72
-11.11
-7.72
-4.83
-2.58
-1.03
-0.14
0.18
0.10
-0.18
-0.48
-0.67
-0.71
-0.62
-0.45
-0.25
-0.08
0.09
0.26
0.48
0.75
1.00
1.14
0.98
0.39
-0.65
-2.04
-3.56
-4.98
-6.18
-7.18
-8.06
-8.98
-10.06
-11.40
-13.08
-15.12
-17.37
-19.50
-20.93
-21.04
-19.39
-15.99
-11.35
-6.34
-1.80
1.70
4.06
5.59
6.73
7.83
9.03
10.24
11.26
11.96
12.33
12.52
12.71
13.02
13.44
13.84
14.06
14.03
13.80
13.52
13.36
13.37
13.45
13.38
12.97
12.15
11.02
9.78
8.65
7.72
6.93
6.07
4.92
3.34
1.37
-0.75
-2.52
-3.41
-2.92
-0.83
2.69
7.12
11.72
15.78
18.83
20.77
21.76
22.08
22.03
21.77
21.40
20.94
20.45
20.01
19.70
19.57
19.61
19.74
19.83
19.76
19.37
18.54
17.12
15.02
12.21
8.79
4.96
0.97
-2.95
-6.70
-10.31
-13.86
-17.48
-21.28
-25.32
-29.63
-34.15
-38.68
-42.86
-46.21
-48.30
-48.90
-48.06
-46.15
-43.65
-40.94
-38.24
-35.51
-32.60
-29.37
-25.79
-21.95
-18.04
-14.20
-10.55
-7.16
-4.08
-1.40
0.77
2.29
3.00
2.81
1.72
-0.12
-2.45
-4.91
-7.23
-9.21
-10.80
-12.07
-13.15
-14.19
-15.31
-16.66
-18.36
-20.47
-22.93
-25.42
-27.41
-28.32
-27.74
-25.60
-22.20
-18.09
-13.84
-9.88
-6.43
-3.52
-1.10
0.86
2.38
3.48
4.18
4.56
4.71
4.77
4.83
5.00
5.31
5.68
5.99
6.01
5.58
4.61
3.17
1.49
-0.15
-1.46
-2.23
-2.37
-1.98
-1.31
-0.70
-0.52
-1.01
-2.17
-3.75
-5.31
-6.34
-6.44
-5.38
-3.15
0.06
3.95
8.13
12.20
15.77
18.62
20.67
22.07
23.09
24.03
25.11
26.32
27.52
28.42
28.82
28.66
28.08
27.40
26.90
26.79
27.00
27.25
27.13
26.34
24.77
22.63
20.32
18.25
16.74
15.88
15.63
15.81
16.10
16.13
15.49
13.95
11.50
8.60
5.88
4.11
3.76
4.87
7.09
9.86
12.71
15.41
18.13
21.22
25.06
29.81
35.26
40.92
46.26
50.89
54.82
58.41
62.15
66.43
71.23
76.16
80.66
84.27
86.90
88.83
90.51
92.36
94.52
96.79
98.67
99.47
98.46
95.02
88.81
79.83
68.54
55.71
42.27
29.07
16.70
5.42
-4.76
-13.93
-22.22
-29.67
-36.21
-41.78
-46.27
-49.64
-51.90
-53.07
-53.28
-52.64
-51.38
-49.72
-47.96
-46.32
-44.94
-43.81
-42.78
-41.64
-40.27
-38.69
-37.09
-35.79
-35.04
-34.95
-35.45
-36.43
-37.84
-39.83
-42.65
-46.59
-51.83
-58.29
-65.74
-73.84
-82.24
-90.72
-99.13
-107.45
-115.76
-124.22
-133.09
-142.54
-152.41
-162.00
-169.99
-174.68
-174.55
-168.87
-158.00
-143.33
-126.65
-109.50
-92.68
-76.20
-59.70
-43.04
-26.50
-10.86
3.08
14.78
24.20
31.68
37.64
42.30
45.61
47.35
47.34
45.52
42.12
37.56
32.43
27.27
22.49
18.33
14.81
11.81
9.22
6.97
5.06
3.46
2.03
0.58
-1.11
-3.04
-5.01
-6.56
-7.21
-6.68
-5.05
-2.77
-0.48
1.31
2.46
3.23
4.10
5.48
7.45
9.73
11.76
13.06
13.43
13.04
12.34
11.81
11.69
11.93
12.25
12.29
11.89
11.05
10.03
9.08
8.34
7.76
7.10
6.09
4.58
2.62
0.44
-1.69
-3.56
-5.08
-6.30
-7.23
-7.77
-7.72
-6.82
-4.93
-2.18
1.08
4.33
7.06
9.00
10.12
10.63
10.81
10.87
10.88
10.75
10.43
9.95
9.48
9.26
9.43
9.96
10.61
11.06
11.03
10.39
9.24
7.83
6.40
5.13
4.01
2.91
1.64
0.06
-1.86
-4.04
-6.29
-8.40
-10.11
-11.13
-11.23
-10.25
-8.17
-5.24
-1.88
1.34
3.95
5.71
6.70
7.27
7.83
8.71
9.93
11.32
12.57
13.40
13.73
13.65
13.37
13.09
12.96
13.02
13.19
13.31
13.21
12.78
11.96
10.87
9.68
8.63
7.84
7.33
6.90
6.30
5.25
3.57
1.25
-1.51
-4.33
-6.72
-8.15
-8.19
-6.77
-4.12
-0.81
2.49
5.23
7.19
8.45
9.29
9.97
10.62
11.21
11.69
12.06
12.38
12.74
13.17
13.65
14.08
14.38
14.52
14.53
14.42
14.12
13.58
12.72
11.53
10.11
8.55
7.01
5.53
4.13
2.74
1.25
-0.47
-2.48
-4.76
-7.12
-9.27
-10.79
-11.33
-10.68
-8.88
-6.22
-3.09
0.07
2.89
5.20
6.97
8.30
9.33
10.19
10.95
11.61
12.16
12.53
12.74
12.83
12.88
12.98
13.13
13.25
13.19
12.82
12.08
11.08
10.01
9.06
8.33
7.76
7.16
6.28
4.97
3.18
1.05
-1.24
-3.46
-5.49
-7.20
-8.45
-9.06
-8.79
-7.50
-5.24
-2.32
0.79
3.60
5.73
7.04
7.59
7.57
7.15
6.49
5.68
4.83
4.09
3.59
3.44
3.65
4.06
4.44
4.49
4.03
2.99
1.52
-0.09
-1.56
-2.68
-3.47
-4.16
-5.10
-6.57
-8.64
-11.06
-13.32
-14.82
-15.13
-14.09
-11.86
-8.91
-5.71
-2.71
-0.13
1.99
3.74
5.21
6.41
7.25
7.64
7.59
7.23
6.78
6.49
6.46
6.62
6.80
6.77
6.42
5.75
4.86
3.91
2.98
2.06
1.12
0.06
-1.15
-2.51
-4.01
-5.63
-7.40
-9.31
-11.34
-13.29
-14.82
-15.53
-15.05
-13.26
-10.37
-6.90
-3.45
-0.53
1.70
3.34
4.65
5.86
7.04
8.09
8.84
9.20
9.24
9.14
9.12
9.25
9.46
9.52
9.21
8.41
7.19
5.80
4.44
3.25
2.21
1.21
0.10
-1.13
-2.43
-3.68
-4.84
-6.02
-7.39
-9.13
-11.26
-13.53
-15.47
-16.55
-16.35
-14.75
-12.02
-8.74
-5.55
-2.92
-0.97
0.53
1.94
3.52
5.28
6.97
8.27
8.97
9.08
8.84
8.55
8.46
8.67
9.09
9.57
9.95
10.16
10.21
10.19
10.13
10.06
9.88
9.53
8.97
8.28
7.61
7.14
6.92
6.83
6.62
6.09
5.21
4.19
3.45
3.43
4.46
6.60
9.73
13.56
17.76
22.06
26.24
30.19
33.82
37.10
40.01
42.57
44.88
47.08
49.39
52.06
55.27
59.05
63.16
67.08
70.08
71.35
70.22
66.32
59.83
51.42
42.19
33.36
25.84
19.99
15.44
11.28
6.55
0.62
-6.57
-14.55
-22.50
-29.52
-34.80
-37.54
-37.12
-33.32
-26.69
-18.79
-12.02
-8.90
-11.08
-18.42
-28.87
-39.21
-46.28
-48.22
-45.01
-38.22
-30.10
-22.59
-16.88
-13.29
-11.83
-12.48
-15.34
-20.38
-27.11
-34.51
-41.17
-45.85
-47.87
-47.39
-45.18
-42.27
-39.41
-36.84
-34.21
-30.98
-26.74
-21.61
-16.19
-11.47
-8.47
-7.90
-10.00
-14.44
-20.39
-26.69
-31.98
-35.02
-34.94
-31.50
-25.18
-17.06
-8.52
-0.82
5.22
9.32
11.74
12.94
13.42
13.44
13.13
12.55
11.82
11.10
10.63
10.52
10.82
11.52
12.78
14.89
18.22
23.02
29.11
35.82
42.10
46.82
49.15
48.83
46.28
42.33
37.97
33.94
30.60
27.94
25.85
24.36
23.81
24.68
27.37
31.84
37.54
43.64
49.30
54.20
58.55
63.01
68.18
74.31
81.07
87.80
93.81
98.71
102.42
105.03
106.44
106.18
103.40
97.16
86.69
71.74
52.60
30.14
5.66
-19.23
-42.73
-63.08
-78.96
-89.79
-96.08
-99.31
-101.57
-104.79
-110.04
-117.03
-124.25
-129.58
-131.19
-128.28
-121.25
-111.39
-100.21
-88.89
-77.97
-67.62
-57.93
-49.21
-41.98
-36.61
-33.10
-30.91
-29.23
-27.35
-24.99
-22.34
-19.86
-17.95
-16.62
-15.44
-13.73
-10.85
-6.41
-0.48
6.48
13.67
20.13
24.93
27.39
27.27
24.80
20.56
15.25
9.46
3.53
-2.42
-8.34
-14.14
-19.54
-24.10
-27.35
-29.00
-29.10
-28.17
-27.03
-26.58
-27.35
-29.23
-31.46
-32.96
-32.77
-30.51
-26.52
-21.66
-16.90
-12.91
-9.88
-7.64
-5.99
-4.85
-4.27
-4.18
-4.18
-3.49
-1.24
3.13
9.52
17.21
25.20
32.76
39.77
46.66
54.00
62.05
70.41
78.24
84.61
88.99
91.45
92.52
92.78
92.45
91.28
88.65
83.97
77.13
68.63
59.52
51.09
44.36
39.91
37.79
37.69
39.16
41.69
44.75
47.63
49.61
50.00
48.33
44.58
39.01
32.11
24.39
16.28
8.12
0.25
-7.01
-13.30
-18.41
-22.31
-25.22
-27.62
-30.12
-33.40
-37.95
-44.09
-51.77
-60.63
-69.99
-78.92
-86.47
-91.79
-94.36
-94.06
-91.18
-86.38
-80.42
-74.04
-67.75
-61.75
-56.07
-50.57
-45.20
-39.93
-34.83
-29.97
-25.41
-21.23
-17.57
-14.58
-12.38
-10.96
-10.12
-9.52
-8.79
-7.80
-6.64
-5.69
-5.34
-5.80
-6.93
-8.30
-9.33
-9.60
-9.00
-7.72
-6.12
-4.52
-3.06
-1.67
-0.19
1.49
3.30
4.99
6.30
7.08
7.40
7.44
7.44
7.49
7.53
7.40
6.96
6.22
5.28
4.34
3.50
2.77
2.07
1.25
0.23
-0.93
-2.12
-3.15
-3.96
-4.59
-5.24
-6.14
-7.38
-8.85
-10.24
-11.13
-11.18
-10.32
-8.77
-6.96
-5.35
-4.21
-3.53
-3.15
-2.79
-2.33
-1.85
-1.54
-1.50
-1.66
-1.76
-1.47
-0.66
0.51
1.61
2.14
1.77
0.58
-1.07
-2.60
-3.59
-3.92
-3.83
-3.77
-4.15
-5.19
-6.79
-8.65
-10.38
-11.69
-12.49
-12.82
-12.82
-12.57
-12.07
-11.25
-10.08
-8.62
-7.02
-5.49
-4.13
-2.95
-1.84
-0.67
0.59
1.84
2.90
3.50
3.51
2.95
2.04
1.06
0.27
-0.27
-0.66
-1.07
-1.63
-2.35
-3.08
-3.72
-4.26
-4.74
-5.31
-6.04
-6.88
-7.70
-8.37
-8.91
-9.42
-10.14
-11.18
-12.53
-13.99
-15.27
-16.14
-16.49
-16.32
-15.81
-15.11
-14.38
-13.62
-12.73
-11.51
-9.75
-7.35
-4.47
-1.45
1.19
2.91
3.35
2.45
0.49
-2.06
-4.63
-6.89
-8.75
-10.42
-12.20
-14.33
-16.89
-19.74
-22.72
-25.70
-28.71
-31.90
-35.43
-39.33
-43.38
-47.20
-50.35
-52.43
-53.27
-52.83
-51.23
-48.68
-45.40
-41.64
-37.61
-33.54
-29.54
-25.56
-21.45
-16.98
-12.02
-6.75
-1.62
2.64
5.29
5.86
4.28
1.00
-3.22
-7.53
-11.23
-13.92
-15.47
-15.91
-15.35
-13.91
-11.74
-9.09
-6.29
-3.65
-1.40
0.47
2.16
3.89
5.82
7.87
9.77
11.25
12.16
12.63
13.02
13.70
14.85
16.41
18.05
19.35
20.04
20.08
19.69
19.18
18.78
18.52
18.25
17.64
16.48
14.73
12.58
10.29
8.13
6.11
4.16
2.09
-0.22
-2.67
-5.09
-7.16
-8.60
-9.19
-8.78
-7.44
-5.32
-2.75
-0.05
2.51
4.82
6.93
8.90
10.64
11.91
12.36
11.78
10.27
8.24
6.29
4.93
4.39
4.56
5.04
5.44
5.46
5.07
4.38
3.55
2.63
1.50
0.01
-1.92
-4.15
-6.32
-8.04
-9.11
-9.64
-9.94
-10.25
-10.51
-10.31
-9.05
-6.38
-2.38
2.36
7.03
11.00
14.06
16.36
18.22
19.80
21.00
21.57
21.33
20.34
18.98
17.69
16.84
16.52
16.52
16.48
16.04
15.02
13.44
11.50
9.48
7.59
5.92
4.43
2.99
1.51
-0.03
-1.66
-3.41
-5.43
-7.88
-10.91
-14.48
-18.27
-21.67
-23.87
-24.14
-22.07
-17.79
-11.92
-5.48
0.64
5.84
10.05
13.54
16.68
19.62
22.25
24.22
25.32
25.61
25.47
25.41
25.72
26.37
27.03
27.29
26.90
25.80
24.04
21.63
18.51
14.49
9.49
3.70
-2.46
-8.41
-13.63
-17.95
-21.57
-25.04
-28.92
-33.54
-38.73
-43.78
-47.66
-49.42
-48.49
-44.96
-39.37
-32.58
-25.30
-17.96
-10.70
-3.58
3.28
9.61
15.12
19.62
23.17
26.03
28.47
30.66
32.57
34.03
34.76
34.57
33.44
31.51
29.17
26.86
24.98
23.71
22.96
22.39
21.59
20.26
18.33
15.93
13.31
10.65
8.05
5.49
3.04
0.90
-0.64
-1.24
-0.75
0.67
2.63
4.63
6.23
7.29
7.92
8.40
9.00
9.87
11.00
12.37
13.96
15.85
18.12
20.71
23.31
25.44
26.57
26.38
24.83
22.14
18.69
14.85
10.89
6.98
3.26
-0.17
-3.24
-5.98
-8.59
-11.30
-14.33
-17.75
-21.38
-24.78
-27.42
-28.83
-28.73
-27.16
-24.42
-20.86
-16.77
-12.12
-6.73
-0.35
6.95
14.68
21.88
27.46
30.55
30.90
28.98
25.82
22.64
20.30
19.06
18.42
17.48
15.26
11.20
5.31
-1.76
-8.99
-15.30
-19.76
-21.83
-21.38
-18.60
-14.02
-8.28
-2.15
3.67
8.70
12.70
15.78
18.29
20.69
23.41
26.57
30.01
33.19
35.39
35.89
34.20
30.30
24.63
18.07
11.67
6.38
2.77
0.83
0.19
0.22
0.40
0.48
0.47
0.52
0.73
1.05
1.36
1.53
1.54
1.40
1.14
0.73
0.09
-0.73
-1.57
-2.19
-2.27
-1.73
-0.69
0.53
1.50
1.92
1.67
0.79
-0.56
-2.18
-3.85
-5.35
-6.40
-6.87
-6.71
-6.11
-5.39
-4.95
-5.11
-5.97
-7.41
-9.07
-10.51
-11.33
-11.35
-10.69
-9.78
-9.24
-9.73
-11.62
-14.88
-18.99
-23.04
-26.04
-27.29
-26.56
-24.21
-21.02
-17.87
-15.43
-14.01
-13.51
-13.59
-13.90
-14.24
-14.60
-14.99
-15.34
-15.42
-14.93
-13.74
-12.01
-10.24
-9.11
-9.11
-10.35
-12.51
-15.00
-17.30
-19.08
-20.46
-21.67
-22.99
-24.58
-26.38
-28.27
-30.09
-31.74
-33.08
-33.86
-33.67
-32.02
-28.56
-23.21
-16.34
-8.70
-1.22
5.20
9.97
12.91
14.15
14.06
13.08
11.64
10.12
8.86
8.21
8.37
9.43
11.23
13.39
15.46
16.89
17.31
16.57
14.77
12.27
9.51
6.91
4.67
2.71
0.75
-1.44
-3.86
-6.22
-7.99
-8.68
-8.07
-6.29
-3.66
-0.55
2.87
6.61
10.64
14.76
18.49
21.26
22.69
22.80
22.00
20.98
20.30
20.22
20.65
21.18
21.36
20.94
19.88
18.40
16.77
15.19
13.74
12.41
11.21
10.20
9.45
8.98
8.73
8.59
8.52
8.72
9.61
11.68
15.30
20.50
26.96
34.07
41.19
47.77
53.51
58.30
62.19
65.33
67.91
70.16
72.31
74.52
76.93
79.57
82.39
85.26
87.98
90.40
92.48
94.34
96.14
98.02
99.89
101.43
102.19
101.77
99.98
96.92
92.95
88.63
84.48
80.86
77.85
75.25
72.71
70.02
67.26
64.76
62.87
61.63
60.50
58.33
53.88
46.17
35.13
21.54
6.82
-7.59
-20.77
-32.67
-43.96
-55.53
-67.72
-79.87
-90.25
-96.74
-97.68
-92.85
-83.76
-73.31
-64.79
-60.83
-62.61
-69.72
-80.57
-93.10
-105.35
-115.92
-123.91
-128.83
-130.53
-129.13
-125.26
-120.15
-115.45
-112.45
-110.98
-108.68
-101.40
-84.79
-56.48
-17.67
26.93
70.82
108.28
136.16
154.11
163.38
165.17
159.82
147.16
127.58
102.88
76.02
50.10
27.09
7.28
-10.33
-26.98
-43.28
-58.74
-72.08
-82.00
-87.82
-89.91
-89.44
-88.03
-87.11
-87.48
-89.12
-91.41
-93.45
-94.49
-94.10
-92.25
-89.21
-85.39
-81.25
-77.27
-73.94
-71.77
-71.24
-72.72
-76.21
-81.42
-87.59
-93.82
-99.28
-103.44
-106.13
-107.49
-107.71
-106.92
-105.14
-102.39
-98.86
-95.05
-91.68
-89.50
-89.18
-91.07
-95.36
-102.02
-110.79
-121.06
-131.53
-140.04
-143.75
-139.83
-126.47
-103.84
-74.33
-41.96
-11.17
14.53
33.33
45.04
50.45
50.64
46.63
39.57
31.01
23.09
18.09
17.68
22.29
30.91
41.54
51.91
60.30
65.92
68.76
69.31
68.02
65.01
60.16
53.32
44.68
34.93
25.13
16.46
9.77
5.37
3.04
2.35
2.89
4.50
7.24
11.17
16.14
21.72
27.21
31.87
35.17
36.90
37.26
36.71
35.79
34.95
34.39
34.08
33.83
33.44
32.81
31.99
31.14
30.40
29.85
29.38
28.80
27.84
26.32
24.22
21.72
19.19
17.00
15.47
14.65
14.32
14.06
13.38
11.88
9.45
6.20
2.46
-1.27
-4.50
-6.75
-7.66
-7.02
-4.85
-1.50
2.43
6.19
9.08
10.60
10.72
9.72
8.19
6.73
5.84
5.75
6.42
7.61
8.97
10.11
10.72
10.55
9.59
7.89
5.68
3.24
0.87
-1.20
-2.82
-4.00
-4.89
-5.73
-6.84
-8.50
-10.92
-14.19
-18.25
-22.88
-27.67
-32.05
-35.29
-36.76
-36.00
-33.02
-28.24
-22.41
-16.43
-10.97
-6.41
-2.72
0.39
3.31
6.33
9.46
12.52
15.20
17.18
18.33
18.77
18.79
18.83
19.23
20.13
21.37
22.51
23.03
22.47
20.59
17.45
13.43
9.14
5.23
2.28
0.57
0.03
0.18
0.23
-0.61
-2.86
-6.46
-10.66
-14.19
-15.59
-13.70
-8.00
1.14
12.53
24.47
35.18
43.31
48.23
50.11
49.84
48.55
47.28
46.68
46.86
47.55
48.35
48.93
49.12
48.97
48.58
48.00
47.22
46.12
44.63
42.72
40.52
38.25
36.14
34.23
32.32
30.06
26.99
22.79
17.44
11.19
4.55
-1.85
-7.39
-11.40
-13.34
-12.87
-9.98
-5.10
0.92
6.99
12.16
15.84
17.97
18.91
19.10
18.94
18.59
18.10
17.54
17.00
16.61
16.39
16.15
15.53
14.18
11.90
8.86
5.57
2.67
0.68
-0.23
-0.34
-0.28
-0.68
-1.99
-4.27
-7.19
-10.17
-12.59
-13.93
-13.86
-12.21
-9.04
-4.61
0.64
6.09
11.10
15.12
17.79
19.01
18.87
17.60
15.50
12.94
10.28
7.89
6.00
4.69
3.87
3.31
2.74
1.88
0.59
-1.20
-3.44
-6.00
-8.78
-11.74
-14.94
-18.50
-22.55
-27.07
-31.88
-36.56
-40.49
-42.98
-43.36
-41.18
-36.41
-29.42
-21.02
-12.21
-3.95
3.08
8.59
12.60
15.34
17.03
17.82
17.85
17.33
16.60
16.04
15.98
16.47
17.27
18.01
18.32
18.05
17.38
16.68
16.25
16.13
16.05
15.53
14.10
11.57
8.15
4.34
0.83
-1.79
-3.07
-2.83
-1.14
1.70
5.21
8.83
12.03
14.47
16.05
16.82
16.93
16.44
15.40
13.84
11.96
10.06
8.45
7.31
6.49
5.58
4.08
1.70
-1.46
-4.92
-8.01
-10.23
-11.43
-11.94
-12.34
-13.25
-15.05
-17.71
-20.82
-23.72
-25.74
-26.31
-25.16
-22.30
-18.00
-12.70
-6.91
-1.19
4.03
8.41
11.81
14.28
15.97
17.12
17.96
18.62
19.17
19.55
19.70
19.55
19.06
18.23
17.05
15.53
13.64
11.43
9.00
6.56
4.34
2.51
1.11
-0.08
-1.43
-3.36
-6.13
-9.63
-13.39
-16.62
-18.49
-18.41
-16.29
-12.49
-7.74
-2.81
1.68
5.44
8.45
10.85
12.81
14.37
15.54
16.36
16.93
17.41
17.93
18.53
19.05
19.27
19.03
18.30
17.28
16.23
15.36
14.75
14.25
13.66
12.79
11.63
10.27
8.92
7.67
6.45
4.97
2.82
-0.40
-4.88
-10.42
-16.46
-22.16
-26.59
-29.00
-29.10
-27.04
-23.50
-19.32
-15.25
-11.76
-8.96
-6.67
-4.66
-2.77
-1.00
0.62
2.03
3.31
4.56
5.88
7.30
8.74
10.10
11.30
12.37
13.38
14.38
15.42
16.53
17.72
19.00
20.33
21.56
22.43
22.63
21.91
20.15
17.45
14.06
10.33
6.69
3.45
0.94
-0.62
-1.06
-0.33
1.44
4.01
7.00
10.09
13.08
15.88
18.51
20.89
22.91
24.41
25.29
25.59
25.51
25.26
25.04
24.87
24.66
24.26
23.56
22.52
21.18
19.61
17.83
15.88
13.75
11.48
9.12
6.76
4.51
2.50
0.80
-0.57
-1.72
-2.86
-4.31
-6.31
-8.99
-12.31
-15.92
-19.30
-21.82
-22.87
-22.10
-19.55
-15.71
-11.35
-7.30
-4.17
-2.12
-1.00
-0.38
0.05
0.43
0.68
0.62
0.24
-0.34
-0.84
-1.05
-0.93
-0.69
-0.66
-1.13
-2.20
-3.72
-5.36
-6.81
-7.88
-8.54
-8.98
-9.41
-10.08
-11.14
-12.64
-14.57
-16.83
-19.25
-21.54
-23.34
-24.21
-23.80
-21.96
-18.84
-14.89
-10.76
-7.05
-4.20
-2.33
-1.29
-0.79
-0.59
-0.59
-0.83
-1.44
-2.46
-3.74
-5.02
-5.96
-6.37
-6.30
-6.10
-6.26
-7.15
-8.90
-11.18
-13.40
-14.98
-15.58
-15.35
-14.80
-14.59
-15.24
-16.87
-19.26
-21.84
-23.98
-25.12
-24.85
-23.08
-20.01
-16.16
-12.21
-8.86
-6.51
-5.23
-4.69
-4.37
-3.77
-2.60
-0.84
1.32
3.62
5.75
7.45
8.54
8.94
8.74
8.21
7.66
7.34
7.33
7.54
7.85
8.24
8.81
9.72
11.08
12.83
14.71
16.49
18.03
19.38
20.69
22.06
23.42
24.50
24.98
24.64
23.51
21.90
20.24
18.99
18.38
18.38
18.67
18.83
18.46
17.38
15.64
13.43
11.00
8.53
6.09
3.66
1.19
-1.32
-3.78
-6.05
-8.00
-9.51
-10.59
-11.28
-11.76
-12.16
-12.63
-13.20
-13.86
-14.59
-15.45
-16.59
-18.12
-19.99
-21.88
-23.21
-23.36
-21.96
-19.05
-15.11
-10.90
-7.11
-4.10
-1.83
-0.01
1.67
3.26
4.56
5.25
5.10
4.18
2.79
1.39
0.38
-0.09
-0.09
0.09
0.15
-0.12
-0.75
-1.61
-2.47
-3.17
-3.72
-4.30
-5.20
-6.59
-8.47
-10.62
-12.74
-14.61
-16.23
-17.72
-19.15
-20.39
-21.01
-20.56
-18.70
-15.55
-11.62
-7.63
-4.15
-1.40
0.73
2.56
4.31
5.98
7.39
8.29
8.66
8.64
8.51
8.48
8.54
8.44
7.90
6.77
5.17
3.45
2.04
1.15
0.74
0.41
-0.32
-1.82
-4.21
-7.29
-10.61
-13.69
-16.12
-17.65
-18.16
-17.58
-15.91
-13.22
-9.72
-5.80
-1.94
1.39
3.90
5.48
6.21
6.24
5.67
4.62
3.18
1.48
-0.28
-1.87
-3.08
-3.79
-4.01
-3.88
-3.56
-3.25
-3.10
-3.22
-3.69
-4.57
-5.85
-7.47
-9.28
-11.18
-13.12
-15.15
-17.38
-19.86
-22.44
-24.75
-26.23
-26.35
-24.86
-21.88
-17.82
-13.27
-8.75
-4.52
-0.68
2.76
5.81
8.39
10.43
11.93
12.99
13.86
14.79
15.93
17.24
18.47
19.27
19.35
18.62
17.22
15.46
13.63
11.95
10.49
9.24
8.13
7.10
5.99
4.62
2.71
0.01
-3.52
-7.63
-11.70
-14.96
-16.73
-16.70
-15.07
-12.50
-9.79
-7.53
-5.95
-4.84
-3.87
-2.73
-1.41
-0.12
0.90
1.55
1.96
2.37
2.93
3.58
4.02
3.94
3.17
1.85
0.35
-0.90
-1.62
-1.78
-1.63
-1.51
-1.73
-2.48
-3.79
-5.67
-8.10
-11.13
-14.72
-18.72
-22.72
-26.11
-28.25
-28.66
-27.22
-24.22
-20.26
-16.06
-12.15
-8.84
-6.18
-4.10
-2.50
-1.30
-0.46
0.18
0.86
1.92
3.58
5.87
8.54
11.14
13.14
14.16
14.06
13.01
11.41
9.66
8.02
6.48
4.84
2.79
0.20
-2.87
-6.14
-9.18
-11.59
-13.05
-13.36
-12.49
-10.50
-7.59
-4.11
-0.48
2.80
5.27
6.70
7.02
6.48
5.41
4.21
3.16
2.42
2.01
1.89
2.05
2.40
2.89
3.34
3.59
3.47
2.90
1.97
0.83
-0.37
-1.56
-2.84
-4.45
-6.73
-9.95
-14.19
-19.25
-24.57
-29.34
-32.77
-34.28
-33.85
-31.96
-29.44
-27.08
-25.39
-24.44
-23.93
-23.53
-23.03
-22.50
-22.19
-22.37
-23.16
-24.40
-25.73
-26.70
-26.88
-26.02
-24.07
-21.12
-17.32
-12.88
-8.02
-3.06
1.60
5.48
8.08
9.09
8.52
6.78
4.64
3.10
3.04
5.04
9.11
14.75
20.97
26.70
31.03
33.49
34.16
33.48
32.07
30.50
29.10
28.01
27.26
26.88
26.90
27.29
27.86
28.33
28.33
27.64
26.27
24.39
22.30
20.17
18.09
15.94
13.62
11.03
8.11
4.93
1.57
-1.74
-4.71
-6.92
-8.04
-7.88
-6.55
-4.40
-1.91
0.44
2.32
3.57
4.14
4.09
3.52
2.58
1.48
0.44
-0.39
-0.93
-1.22
-1.29
-1.21
-1.04
-0.83
-0.63
-0.44
-0.27
-0.04
0.32
0.79
1.22
1.30
0.71
-0.84
-3.30
-6.25
-8.97
-10.62
-10.46
-8.17
-3.96
1.47
7.19
12.29
16.12
18.46
19.42
19.31
18.45
17.03
15.11
12.65
9.72
6.48
3.21
0.18
-2.45
-4.70
-6.75
-8.75
-10.75
-12.61
-14.06
-14.96
-15.39
-15.72
-16.38
-17.57
-19.07
-20.19
-20.07
-17.96
-13.56
-7.14
0.54
8.43
15.53
20.97
24.23
25.08
23.67
20.46
16.20
11.84
8.35
6.54
6.85
9.29
13.41
18.49
23.71
28.53
32.79
36.75
40.85
45.38
50.16
54.46
57.28
57.74
55.49
50.82
44.40
36.91
28.71
19.82
10.17
-0.13
-10.58
-20.43
-28.95
-35.65
-40.43
-43.42
-44.86
-44.93
-43.72
-41.26
-37.64
-32.95
-27.34
-20.93
-14.01
-6.95
-0.37
5.04
8.53
9.51
7.66
3.12
-3.42
-10.79
-17.46
-21.97
-23.32
-21.33
-16.79
-11.22
-6.43
-3.94
-4.43
-7.61
-12.33
-17.10
-20.54
-21.78
-20.59
-17.25
-12.33
-6.52
-0.46
5.24
10.09
13.73
16.05
17.22
17.72
18.22
19.45
21.92
25.77
30.67
35.85
40.27
42.91
43.07
40.67
36.23
30.82
25.64
21.74
19.66
19.32
20.08
21.05
21.38
20.59
18.66
15.95
13.02
10.35
8.16
6.41
4.85
3.18
1.12
-1.54
-5.02
-9.59
-15.51
-22.94
-31.76
-41.50
-51.35
-60.37
-67.71
-72.88
-75.86
-77.01
-76.91
-76.05
-74.71
-72.87
-70.37
-67.06
-62.99
-58.46
-53.98
-50.01
-46.82
-44.35
-42.26
-40.12
-37.60
-34.68
-31.57
-28.58
-25.91
-23.50
-21.03
-18.13
-14.52
-10.24
-5.70
-1.48
1.86
3.97
4.85
4.82
4.35
3.83
3.41
3.01
2.39
1.36
-0.05
-1.56
-2.71
-3.09
-2.45
-0.85
1.45
4.07
6.67
9.01
10.90
12.19
12.78
12.60
11.74
10.48
9.28
8.71
9.29
11.31
14.75
19.26
24.23
28.91
32.63
34.89
35.48
34.41
31.87
28.16
23.61
18.60
13.56
9.04
5.61
3.76
3.74
5.41
8.32
11.86
15.45
18.74
21.68
24.31
26.67
28.65
30.04
30.72
30.78
30.59
30.69
31.53
33.16
35.22
37.01
37.78
37.06
34.87
31.64
28.00
24.56
21.60
19.12
16.88
14.58
11.99
9.02
5.76
2.41
-0.72
-3.36
-5.23
-6.05
-5.70
-4.13
-1.55
1.60
4.66
6.94
7.88
7.33
5.56
3.16
0.83
-0.92
-1.83
-1.94
-1.39
-0.30
1.20
3.04
5.02
6.96
8.63
9.87
10.64
10.97
10.90
10.37
9.30
7.59
5.19
2.28
-0.82
-3.59
-5.50
-6.10
-5.24
-3.03
0.07
3.41
6.25
7.95
8.11
6.64
3.87
0.41
-2.92
-5.33
-6.28
-5.64
-3.71
-1.07
1.63
3.88
5.44
6.35
6.76
6.88
6.83
6.57
5.91
4.50
1.91
-2.30
-8.28
-15.74
-23.80
-31.12
-36.20
-37.89
-35.76
-30.21
-22.41
-13.82
-5.85
0.37
4.14
5.09
3.29
-0.74
-5.97
-10.94
-14.24
-14.93
-13.05
-9.62
-6.31
-4.81
-6.19
-10.68
-17.68
-26.09
-34.68
-42.26
-47.83
-50.71
-50.65
-48.01
-43.69
-38.95
-34.87
-32.04
-30.35
-29.24
-28.01
-26.17
-23.57
-20.22
-16.23
-11.63
-6.45
-0.81
4.94
10.41
15.21
19.27
22.84
26.54
31.09
37.07
44.76
53.87
63.68
73.15
81.21
87.09
90.49
91.68
91.42
90.71
90.55
91.64
94.18
97.74
101.23
103.03
101.38
94.88
83.14
67.06
48.78
31.13
16.76
7.50
4.13
6.63
14.76
28.35
47.02
69.47
92.89
113.06
125.47
126.99
117.26
99.06
77.35
57.52
43.70
37.88
40.02
48.74
62.01
77.51
92.80
105.57
114.20
118.58
120.40
122.60
128.14
138.42
152.38
166.74
177.46
181.41
177.57
167.08
152.24
135.24
117.25
98.30
77.96
56.07
33.24
10.76
-9.97
-27.94
-42.99
-55.65
-66.86
-77.45
-87.77
-97.51
-105.83
-111.60
-113.78
-111.67
-105.14
-94.79
-81.90
-68.31
-56.00
-46.60
-40.92
-38.70
-38.87
-40.08
-41.33
-42.29
-43.08
-43.90
-44.60
-44.56
-43.01
-39.42
-33.72
-26.33
-17.88
-8.97
-0.10
8.31
15.75
21.65
25.43
26.69
25.37
21.76
16.38
9.81
2.63
-4.66
-11.55
-17.48
-21.79
-23.83
-23.04
-19.17
-12.36
-3.22
7.13
17.29
25.76
31.28
33.14
31.38
26.72
20.28
13.26
6.46
0.05
-6.33
-13.37
-21.63
-31.30
-42.13
-53.53
-64.81
-75.35
-84.74
-92.80
-99.56
-105.23
-110.12
-114.56
-118.80
-123.01
-127.26
-131.71
-136.61
-142.21
-148.53
-155.16
-161.18
-165.41
-166.95
-165.64
-162.21
-157.97
-154.14
-151.29
-149.07
-146.53
-142.56
-136.54
-128.52
-119.15
-109.25
-99.54
-90.45
-82.17
-74.79
-68.34
-62.84
-58.29
-54.61
-51.78
-49.77
-48.59
-48.25
-48.73
-49.97
-51.96
-54.62
-57.84
-61.31
-64.53
-66.88
-67.85
-67.25
-65.27
-62.47
-59.50
-56.99
-55.35
-54.68
-54.79
-55.19
-55.18
-54.10
-51.53
-47.50
-42.50
-37.29
-32.59
-28.84
-26.32
-25.32
-26.50
-30.84
-39.33
-52.54
-70.12
-90.94
-113.24
-135.10
-154.69
-170.27
-180.32
-183.51
-179.25
-168.04
-151.73
-133.24
-115.72
-101.57
-91.76
-85.68
-81.93
-79.19
-77.04
-75.94
-76.72
-79.62
-83.78
-87.35
-88.09
-84.39
-75.70
-62.50
-45.78
-26.60
-5.88
15.45
36.14
54.61
69.34
79.35
84.70
86.38
85.87
84.42
82.52
79.74
75.11
67.53
56.44
42.02
25.30
7.93
-8.17
-21.25
-30.18
-34.79
-35.94
-35.23
-34.47
-34.92
-36.87
-39.59
-41.86
-42.51
-40.86
-36.66
-29.68
-19.37
-4.68
15.47
41.54
72.68
106.56
139.67
168.10
188.53
199.10
199.83
192.62
180.58
167.35
156.05
148.82
146.51
148.87
154.86
163.04
171.94
180.26
187.08
191.93
194.72
195.74
195.35
193.72
190.64
185.33
176.57
163.10
144.04
119.36
90.10
58.27
26.45
-2.76
-27.27
-45.88
-58.37
-65.34
-67.94
-67.56
-65.60
-63.21
-61.30
-60.40
-60.75
-62.33
-64.92
-68.30
-72.24
-76.53
-80.81
-84.54
-86.85
-86.68
-82.98
-75.14
-63.22
-48.12
-31.46
-15.17
-1.05
9.73
16.81
20.58
21.98
21.98
21.34
20.43
19.36
18.15
16.89
15.83
15.17
15.02
15.19
15.27
14.84
13.53
11.17
7.77
3.40
-1.76
-7.51
-13.50
-19.22
-24.07
-27.46
-29.12
-29.12
-28.05
-26.77
-26.18
-26.90
-29.08
-32.23
-35.25
-36.55
-34.39
-27.40
-15.04
1.99
21.86
42.08
60.26
74.65
84.51
89.85
90.99
88.18
81.59
71.57
59.04
45.57
33.13
23.44
17.52
15.37
16.10
18.36
20.72
22.12
22.03
20.66
19.11
19.17
22.98
32.34
47.80
68.06
89.93
108.82
119.89
119.22
104.84
77.06
38.40
-7.05
-54.47
-99.17
-137.26
-165.94
-183.74
-190.54
-187.67
-178.09
-166.22
-157.10
-154.90
-161.16
-173.78
-187.34
-195.03
-191.16
-173.17
-142.15
-101.67
-56.09
-9.19
36.02
76.74
109.90
132.53
142.75
140.91
129.85
113.97
97.52
83.17
71.44
61.30
51.36
40.96
30.59
21.53
15.03
11.59
10.66
10.86
10.55
8.57
4.66
-0.54
-5.79
-9.94
-12.34
-13.15
-13.29
-14.18
-17.40
-24.18
-35.04
-49.36
-65.36
-80.22
-90.63
-93.46
-86.37
-68.44
-40.53
-5.24
33.44
70.99
103.43
128.26
144.82
153.92
157.03
155.47
150.04
141.16
129.43
116.08
103.04
92.68
87.15
87.77
94.71
106.95
122.58
139.28
154.66
166.28
171.62
168.36
155.17
132.74
104.31
75.03
50.29
33.68
25.73
24.28
25.94
27.84
28.36
26.68
21.95
12.89
-1.58
-21.18
-43.50
-64.50
-80.09
-87.84
-87.82
-82.21
-73.81
-64.75
-55.73
-46.35
-36.09
-25.21
-15.05
-7.48
-3.89
-4.23
-6.79
-8.77
-7.48
-1.47
8.94
22.05
35.61
47.74
57.44
64.60
69.68
73.29
76.01
78.28
80.33
82.12
83.35
83.61
82.66
80.74
78.69
77.59
78.25
80.53
83.28
84.55
82.37
75.54
64.06
49.08
32.33
15.28
-1.37
-17.96
-35.67
-55.93
-79.85
-107.52
-137.41
-166.17
-189.11
-201.28
-199.17
-182.12
-152.87
-116.92
-80.66
-49.39
-25.86
-10.03
-0.00
6.66
11.83
16.53
21.19
26.14
31.95
39.11
47.77
57.43
66.96
74.94
80.20
82.29
81.74
79.91
78.66
79.66
83.78
90.76
99.25
107.24
112.82
114.74
112.71
107.24
99.22
89.50
78.69
67.29
55.89
45.20
36.00
28.78
23.54
19.77
16.77
13.89
10.85
7.71
4.65
1.75
-1.22
-4.72
-9.19
-14.83
-21.30
-27.79
-33.19
-36.45
-36.76
-33.72
-27.36
-18.06
-6.68
5.49
16.75
25.32
29.90
30.14
26.93
22.04
17.58
15.19
15.72
19.20
25.20
33.29
43.25
55.11
69.03
85.19
103.52
123.48
143.68
161.81
174.99
180.60
177.22
165.18
146.51
123.99
100.16
76.43
52.89
28.73
2.78
-25.84
-57.27
-90.72
-124.49
-156.29
-183.71
-204.87
-218.91
-226.14
-227.73
-225.18
-219.85
-212.76
-204.68
-196.28
-188.11
-180.42
-172.86
-164.46
-154.05
-140.86
-125.36
-109.41
-95.88
-87.64
-86.26
-91.32
-100.31
-109.68
-116.03
-117.34
-113.42
-105.50
-95.54
-85.28
-75.79
-67.43
-60.07
-53.39
-47.00
-40.57
-33.83
-26.71
-19.37
-12.19
-5.66
-0.19
4.10
7.42
10.19
12.84
15.60
18.38
20.85
22.63
23.45
23.22
22.07
20.19
17.84
15.27
12.77
10.58
8.77
7.21
5.59
3.56
0.91
-2.25
-5.50
-8.20
-9.74
-9.66
-7.83
-4.49
-0.27
3.88
6.87
7.72
5.95
1.74
-4.04
-10.12
-15.31
-18.86
-20.69
-21.22
-21.16
-21.19
-21.73
-22.88
-24.43
-25.88
-26.58
-25.85
-23.19
-18.39
-11.74
-4.00
3.71
10.14
14.26
15.43
13.60
9.24
3.31
-3.06
-8.88
-13.49
-16.77
-19.15
-21.34
-23.98
-27.30
-30.95
-34.14
-36.00
-36.08
-34.57
-32.31
-30.47
-30.12
-31.89
-35.78
-41.14
-46.93
-51.97
-55.27
-56.29
-55.11
-52.32
-48.75
-45.14
-41.90
-39.08
-36.67
-34.89
-34.37
-35.96
-40.28
-47.24
-55.90
-64.69
-71.85
-76.11
-76.94
-74.56
-69.62
-62.74
-54.16
-43.59
-30.43
-13.97
6.25
30.02
56.04
81.73
103.43
117.30
120.66
113.22
97.58
78.58
61.79
51.61
49.92
55.89
66.68
78.89
89.68
97.46
101.76
103.00
102.23
100.96
101.12
104.41
111.59
121.68
131.94
138.74
139.28
132.98
121.90
109.59
99.11
91.23
84.08
74.39
59.42
38.70
14.16
-10.84
-33.02
-50.22
-61.46
-66.53
-65.49
-58.66
-46.86
-31.67
-15.27
0.15
12.98
22.52
28.80
32.25
33.24
31.99
28.58
23.28
16.69
9.77
3.69
-0.55
-2.31
-1.37
2.06
7.63
14.88
23.26
31.97
39.89
45.69
48.23
46.97
42.21
35.00
26.72
18.56
11.31
5.35
0.90
-1.78
-2.39
-0.84
2.67
7.50
12.77
17.67
21.71
24.77
26.97
28.40
28.99
28.54
26.85
23.97
20.21
16.03
11.87
7.99
4.43
1.12
-1.97
-4.82
-7.37
-9.57
-11.51
-13.31
-15.08
-16.85
-18.52
-19.94
-21.02
-21.80
-22.44
-23.29
-24.64
-26.76
-29.73
-33.30
-36.92
-39.79
-41.06
-40.10
-36.67
-31.03
-23.78
-15.71
-7.60
-0.08
6.40
11.53
15.08
16.90
17.01
15.59
13.05
10.00
7.03
4.58
2.76
1.41
0.17
-1.25
-2.95
-4.86
-6.75
-8.45
-10.00
-11.55
-13.40
-15.71
-18.45
-21.34
-23.99
-26.08
-27.54
-28.58
-29.64
-31.14
-33.25
-35.77
-38.17
-39.79
-40.07
-38.82
-36.22
-32.76
-29.02
-25.44
-22.27
-19.58
-17.33
-15.53
-14.31
-13.88
-14.35
-15.71
-17.78
-20.26
-22.94
-25.81
-29.06
-32.99
-37.87
-43.81
-50.72
-58.28
-66.10
-73.77
-80.93
-87.34
-92.96
-97.99
-102.78
-107.66
-112.71
-117.60
-121.59
-123.79
-123.55
-120.73
-116.00
-110.56
-105.93
-103.43
-103.75
-106.78
-111.50
-116.26
-119.07
-118.18
-112.52
-102.05
-87.74
-71.24
-54.32
-38.39
-24.21
-11.99
-1.61
7.10
14.22
19.85
24.24
27.85
31.20
34.71
38.40
41.88
44.52
45.74
45.33
43.57
41.10
38.71
37.01
36.24
36.27
36.69
37.02
36.94
36.38
35.50
34.60
33.81
32.93
31.38
28.26
22.80
14.77
4.83
-5.39
-13.70
-17.97
-16.94
-10.64
-0.44
11.39
22.54
31.38
37.40
41.25
44.27
47.95
53.41
61.04
70.51
80.91
91.15
100.42
108.63
116.86
127.29
142.81
166.10
198.51
239.06
284.02
327.41
362.26
382.52
384.60
368.23
336.17
292.98
243.37
190.83
137.13
82.89
28.72
-23.73
-71.48
-111.02
-139.62
-156.46
-162.79
-161.05
-153.50
-141.20
-123.98
-101.35
-73.96
-44.38
-17.03
3.11
12.09
8.33
-7.04
-30.66
-58.07
-84.75
-107.00
-122.28
-129.31
-128.10
-119.75
-106.23
-90.00
-73.47
-58.69
-46.88
-38.45
-33.09
-30.06
-28.49
-27.54
-26.60
-25.40
-24.07
-23.13
-23.28
-24.99
-28.10
-31.65
-34.03
-33.53
-28.89
-19.81
-7.13
7.56
22.44
36.00
47.41
56.43
63.17
67.75
70.16
70.35
68.42
64.85
60.43
56.12
52.71
50.51
49.41
48.96
48.63
48.09
47.17
45.87
44.26
42.36
40.12
37.47
34.41
31.02
27.54
24.31
21.64
19.69
18.39
17.39
16.18
14.24
11.29
7.41
3.15
-0.60
-2.86
-2.73
0.31
6.27
14.64
24.55
35.06
45.38
55.04
63.84
71.63
78.21
83.18
86.14
86.86
85.45
82.34
78.09
73.25
68.14
62.91
57.62
52.27
46.88
41.36
35.51
29.06
21.80
13.82
5.57
-2.18
-8.68
-13.40
-16.34
-17.94
-18.92
-19.93
-21.36
-23.24
-25.25
-26.91
-27.64
-26.91
-24.24
-19.41
-12.46
-3.89
5.47
14.57
22.43
28.36
32.09
33.66
33.32
31.28
27.72
22.73
16.43
9.05
0.91
-7.57
-15.94
-23.85
-31.08
-37.59
-43.51
-49.11
-54.58
-59.91
-64.83
-68.78
-71.18
-71.61
-70.02
-66.78
-62.50
-57.79
-53.03
-48.29
-43.48
-38.50
-33.46
-28.70
-24.61
-21.48
-19.37
-18.17
-17.66
-17.68
-18.22
-19.32
-21.09
-23.43
-26.13
-28.82
-31.13
-32.84
-33.94
-34.64
-35.27
-36.10
-37.27
-38.72
-40.26
-41.62
-42.59
-43.05
-43.00
-42.53
-41.79
-40.94
-40.13
-39.48
-39.03
-38.78
-38.65
-38.56
-38.46
-38.38
-38.38
-38.57
-39.08
-39.89
-40.93
-41.97
-42.73
-42.92
-42.35
-41.03
-39.08
-36.80
-34.47
-32.35
-30.56
-29.13
-27.97
-26.97
-26.10
-25.45
-25.24
-25.72
-27.04
-29.14
-31.76
-34.55
-37.18
-39.52
-41.58
-43.46
-45.18
-46.65
-47.71
-48.23
-48.21
-47.76
-47.12
-46.51
-46.12
-46.10
-46.55
-47.59
-49.25
-51.49
-54.06
-56.54
-58.40
-59.14
-58.39
-56.03
-52.20
-47.24
-41.59
-35.67
-29.81
-24.23
-19.09
-14.53
-10.69
-7.68
-5.44
-3.71
-2.03
0.01
2.66
5.74
8.74
11.09
12.49
13.17
13.88
15.61
19.05
24.31
30.75
37.23
42.47
45.52
45.85
43.44
38.61
31.86
23.85
15.34
7.25
0.54
-3.92
-5.57
-4.42
-1.06
3.39
7.63
10.49
11.28
9.91
6.90
3.07
-0.72
-3.86
-6.05
-7.19
-7.35
-6.57
-4.93
-2.55
0.33
3.37
6.30
8.98
11.45
13.81
16.10
18.18
19.67
20.11
19.09
16.48
12.46
7.45
1.97
-3.49
-8.59
-13.04
-16.52
-18.63
-18.87
-16.81
-12.35
-5.82
1.96
9.93
17.05
22.60
26.36
28.54
29.59
29.96
29.94
29.61
29.00
28.17
27.33
26.71
26.47
26.51
26.51
26.05
24.83
22.81
20.29
17.72
15.47
13.66
12.08
10.32
7.96
4.76
0.66
-4.10
-9.14
-13.99
-18.17
-21.25
-22.86
-22.79
-20.91
-17.30
-12.24
-6.19
0.19
6.21
11.33
15.25
18.02
19.92
21.29
22.35
23.16
23.67
23.88
23.98
24.30
25.20
26.80
28.95
31.20
32.98
33.83
33.46
31.86
29.19
25.81
22.12
18.54
15.39
12.86
10.82
8.92
6.62
3.40
-1.01
-6.41
-12.13
-17.06
-20.05
-20.24
-17.41
-12.13
-5.49
1.14
6.73
10.83
13.59
15.58
17.40
19.38
21.51
23.61
25.48
27.09
28.52
29.85
30.98
31.62
31.42
30.10
27.67
24.44
20.92
17.69
15.18
13.54
12.66
12.16
11.57
10.50
8.73
6.35
3.68
1.08
-1.23
-3.29
-5.36
-7.77
-10.76
-14.31
-18.19
-21.96
-25.10
-27.16
-27.85
-27.12
-25.18
-22.46
-19.48
-16.67
-14.30
-12.35
-10.67
-9.08
-7.43
-5.68
-3.86
-2.06
-0.36
1.04
1.88
1.90
0.95
-0.85
-3.05
-5.02
-6.15
-6.04
-4.63
-2.16
0.98
4.37
7.66
10.56
12.81
14.19
14.49
13.66
11.85
9.56
7.66
7.40
10.28
17.81
31.11
50.49
74.92
101.88
127.44
146.91
155.85
151.38
133.05
103.16
66.13
27.26
-8.65
-38.35
-60.48
-75.33
-84.29
-89.32
-92.58
-96.19
-101.87
-110.71
-122.85
-137.45
-152.93
-167.31
-178.67
-185.27
-185.77
-179.28
-165.55
-145.09
-119.27
-90.17
-60.41
-32.91
-10.71
3.25
6.61
-1.81
-21.39
-49.52
-81.96
-113.96
-141.34
-161.50
-173.63
-178.31
-176.72
-170.17
-159.79
-146.62
-131.66
-115.79
-99.49
-82.60
-64.27
-43.40
-19.17
8.33
37.91
67.52
94.83
117.95
135.85
148.45
156.27
160.15
160.84
159.00
155.24
150.16
144.37
138.36
132.40
126.49
120.42
113.90
106.76
99.02
90.86
82.58
74.45
66.66
59.31
52.55
46.69
42.18
39.61
39.47
41.93
46.72
53.13
60.19
66.97
72.82
77.38
80.70
83.05
84.85
86.59
88.71
91.58
95.24
99.33
102.92
104.68
103.07
96.83
85.34
68.80
48.19
25.01
0.91
-22.63
-44.48
-63.86
-80.30
-93.53
-103.41
-110.00
-113.58
-114.65
-113.83
-111.59
-108.07
-102.90
-95.42
-85.09
-71.92
-56.77
-41.19
-26.92
-15.21
-6.45
-0.03
5.16
10.23
15.73
21.51
26.92
31.24
34.04
35.42
35.87
36.00
36.27
36.87
37.71
38.64
39.54
40.41
41.28
42.12
42.70
42.70
41.80
39.89
37.11
33.84
30.51
27.48
24.91
22.87
21.46
21.00
21.99
25.02
30.48
38.35
48.08
58.78
69.43
79.18
87.55
94.45
100.14
105.08
109.95
115.50
122.38
130.86
140.43
149.73
156.71
159.23
155.71
145.66
129.76
109.55
86.85
63.34
40.38
19.09
0.41
-14.89
-26.37
-34.10
-38.68
-40.95
-41.73
-41.57
-40.78
-39.53
-37.96
-36.13
-33.91
-30.93
-26.77
-21.40
-15.43
-10.18
-7.11
-7.19
-10.39
-15.69
-21.62
-27.01
-31.48
-35.41
-39.49
-44.26
-49.76
-55.71
-61.78
-67.76
-73.54
-78.77
-82.65
-83.95
-81.45
-74.45
-63.25
-49.12
-33.96
-19.68
-7.66
1.60
8.44
13.74
18.56
23.79
29.98
37.22
45.05
52.42
57.86
59.90
57.62
51.19
42.01
32.30
24.39
19.88
19.17
21.51
25.45
29.58
32.95
35.17
36.28
36.42
35.75
34.50
33.03
31.95
32.01
33.86
37.76
43.28
49.26
54.09
56.18
54.44
48.72
39.86
29.28
18.45
8.35
-0.74
-9.12
-17.24
-25.31
-33.13
-40.18
-45.96
-50.28
-53.35
-55.67
-57.76
-59.87
-61.93
-63.63
-64.65
-64.89
-64.61
-64.34
-64.72
-66.26
-69.09
-72.92
-77.07
-80.68
-82.98
-83.41
-81.76
-78.12
-72.78
-66.11
-58.59
-50.78
-43.24
-36.51
-30.99
-26.91
-24.38
-23.35
-23.69
-25.06
-26.94
-28.70
-29.79
-29.93
-29.23
-28.06
-26.77
-25.51
-24.15
-22.44
-20.23
-17.66
-15.09
-12.94
-11.43
-10.52
-10.01
-9.72
-9.67
-10.08
-11.24
-13.29
-16.14
-19.44
-22.78
-25.87
-28.65
-31.29
-34.06
-37.23
-40.90
-45.11
-49.78
-54.82
-60.00
-64.95
-69.10
-71.78
-72.48
-71.04
-67.73
-63.18
-58.11
-53.06
-48.15
-43.11
-37.42
-30.64
-22.61
-13.56
-4.07
5.13
13.33
19.98
24.77
27.63
28.63
28.04
26.22
23.74
21.19
19.12
17.85
17.43
17.54
17.68
17.35
16.20
14.18
11.55
8.77
6.25
4.26
2.74
1.39
-0.19
-2.29
-4.99
-8.13
-11.42
-14.56
-17.34
-19.59
-21.19
-22.03
-22.13
-21.63
-20.82
-19.99
-19.17
-18.09
-16.20
-12.95
-8.05
-1.63
5.74
13.31
20.36
26.45
31.44
35.47
38.83
41.80
44.51
46.85
48.56
49.36
49.15
48.05
46.46
44.82
43.47
42.44
41.52
40.37
38.65
36.26
33.29
30.04
26.80
23.75
20.95
18.31
15.70
13.04
10.27
7.33
4.05
0.23
-4.35
-9.60
-15.10
-20.07
-23.57
-24.98
-24.16
-21.61
-18.22
-14.92
-12.32
-10.67
-9.85
-9.55
-9.42
-9.19
-8.72
-7.98
-7.02
-5.94
-4.89
-3.99
-3.38
-3.12
-3.21
-3.59
-4.15
-4.75
-5.27
-5.64
-5.91
-6.21
-6.69
-7.46
-8.48
-9.61
-10.60
-11.29
-11.62
-11.74
-11.92
-12.48
-13.64
-15.34
-17.26
-18.78
-19.26
-18.26
-15.71
-12.03
-7.86
-3.86
-0.45
2.28
4.45
6.28
7.85
9.15
10.14
10.88
11.52
12.25
13.14
14.08
14.83
15.13
14.88
14.14
13.15
12.13
11.16
10.19
9.05
7.62
5.86
3.90
1.89
-0.05
-1.86
-3.55
-5.14
-6.65
-8.12
-9.62
-11.35
-13.45
-15.99
-18.83
-21.60
-23.76
-24.80
-24.38
-22.48
-19.39
-15.68
-11.97
-8.82
-6.48
-4.94
-3.92
-3.08
-2.12
-0.88
0.68
2.57
4.79
7.24
9.77
12.07
13.85
14.91
15.19
14.90
14.22
13.36
12.42
11.42
10.38
9.30
8.22
7.09
5.82
4.34
2.58
0.56
-1.74
-4.37
-7.39
-10.82
-14.44
-17.73
-19.95
-20.40
-18.79
-15.36
-10.84
-6.16
-2.02
1.26
3.84
6.05
8.14
10.11
11.71
12.71
13.02
12.78
12.34
11.96
11.77
11.62
11.24
10.37
8.87
6.83
4.38
1.73
-1.02
-3.83
-6.62
-9.33
-11.85
-14.08
-16.07
-17.95
-19.92
-22.07
-24.24
-26.01
-26.74
-25.92
-23.28
-19.01
-13.64
-7.89
-2.39
2.47
6.60
10.08
13.08
15.64
17.67
19.02
19.57
19.38
18.73
18.03
17.66
17.81
18.37
18.95
19.05
18.31
16.65
14.28
11.62
9.09
6.97
5.26
3.79
2.26
0.38
-2.07
-5.18
-8.87
-12.86
-16.63
-19.49
-20.78
-20.03
-17.21
-12.66
-7.10
-1.25
4.30
9.24
13.48
17.07
20.01
22.26
23.78
24.57
24.76
24.58
24.30
24.10
24.06
24.11
24.08
23.75
22.93
21.52
19.55
17.19
14.72
12.39
10.35
8.58
6.94
5.14
2.93
0.10
-3.45
-7.59
-12.04
-16.36
-20.01
-22.46
-23.34
-22.53
-20.22
-16.86
-13.07
-9.46
-6.48
-4.33
-3.06
-2.51
-2.53
-3.03
-3.95
-5.31
-7.13
-9.40
-12.07
-15.02
-18.10
-21.13
-24.04
-26.91
-30.05
-33.96
-39.09
-45.66
-53.49
-62.05
-70.66
-78.85
-86.56
-94.15
-102.22
-111.32
-121.78
-133.49
-145.85
-157.59
-166.78
-170.94
-167.78
-155.96
-135.86
-109.78
-81.34
-54.36
-31.64
-14.32
-2.02
6.48
12.35
16.33
18.73
19.82
20.26
21.14
23.85
29.69
39.53
53.63
71.61
92.56
115.12
137.76
158.86
176.84
190.30
198.04
199.27
193.77
182.02
165.19
144.93
123.01
100.97
79.90
60.49
43.16
28.27
16.19
7.18
1.23
-2.07
-3.45
-3.85
-4.01
-4.33
-4.84
-5.28
-5.39
-5.06
-4.39
-3.65
-3.05
-2.70
-2.54
-2.37
-2.01
-1.34
-0.41
0.64
1.58
2.22
2.47
2.33
1.92
1.43
1.05
0.85
0.80
0.65
0.01
-1.54
-4.33
-8.34
-13.21
-18.23
-22.56
-25.41
-26.29
-25.05
-21.87
-17.17
-11.40
-5.09
1.29
7.30
12.60
17.03
20.58
23.31
25.32
26.65
27.30
27.27
26.65
25.59
24.28
22.92
21.68
20.66
19.88
19.31
18.78
18.05
16.84
14.85
11.96
8.21
3.82
-0.85
-5.48
-9.87
-14.09
-18.39
-23.02
-28.04
-33.04
-37.15
-39.26
-38.44
-34.28
-27.12
-17.97
-8.16
1.04
8.68
14.28
17.72
19.11
18.73
16.95
14.33
11.44
8.82
6.81
5.58
5.10
5.25
5.87
6.70
7.43
7.66
7.11
5.69
3.65
1.45
-0.34
-1.36
-1.58
-1.23
-0.66
-0.19
0.01
-0.24
-1.23
-3.38
-7.03
-12.17
-18.15
-23.81
-27.68
-28.68
-26.45
-21.58
-15.41
-9.45
-4.91
-2.29
-1.31
-1.20
-1.01
-0.03
1.94
4.60
7.22
8.92
8.98
6.91
2.49
-4.22
-12.55
-20.94
-26.80
-27.13
-19.66
-4.21
16.81
38.92
57.29
68.55
71.93
69.05
62.67
55.14
47.58
40.04
32.25
24.46
17.57
12.68
10.43
10.57
12.10
13.63
14.07
13.13
11.41
10.17
10.71
13.77
19.14
25.57
31.27
34.58
34.59
31.50
26.44
20.86
15.97
12.30
9.72
7.72
5.85
3.87
1.88
0.03
-1.66
-3.39
-5.48
-8.14
-11.39
-14.95
-18.45
-21.60
-24.35
-26.88
-29.46
-32.21
-35.06
-37.60
-39.30
-39.58
-38.03
-34.54
-29.34
-22.98
-16.17
-9.56
-3.58
1.61
6.12
10.17
13.88
17.23
20.04
22.05
23.09
23.06
21.99
20.05
17.46
14.49
11.39
8.39
5.67
3.35
1.50
0.10
-0.92
-1.71
-2.46
-3.32
-4.36
-5.51
-6.64
-7.66
-8.63
-9.81
-11.51
-14.02
-17.41
-21.48
-25.70
-29.36
-31.63
-31.87
-29.79
-25.59
-19.90
-13.57
-7.38
-1.83
2.94
7.09
10.79
14.13
17.08
19.54
21.48
22.99
24.21
25.30
26.28
27.11
27.73
28.10
28.32
28.53
28.93
29.62
30.64
31.88
33.10
34.01
34.28
33.61
31.79
28.75
24.59
19.60
14.20
8.81
3.74
-0.94
-5.39
-9.96
-14.93
-20.37
-25.97
-31.17
-35.31
-37.94
-38.91
-38.38
-36.70
-34.13
-30.88
-27.10
-22.91
-18.56
-14.33
-10.53
-7.32
-4.73
-2.61
-0.77
0.99
2.74
4.41
5.78
6.64
6.85
6.47
5.69
4.84
4.15
3.68
3.25
2.59
1.44
-0.16
-2.03
-3.80
-5.17
-6.07
-6.68
-7.38
-8.64
-10.78
-13.96
-18.00
-22.50
-26.87
-30.52
-32.87
-33.59
-32.60
-30.11
-26.55
-22.43
-18.19
-14.12
-10.31
-6.78
-3.55
-0.62
1.96
4.17
6.07
7.71
9.14
10.35
11.32
12.01
12.45
12.72
12.87
12.88
12.66
12.17
11.44
10.57
9.73
8.94
8.10
7.04
5.57
3.74
1.72
-0.30
-2.31
-4.57
-7.53
-11.64
-17.08
-23.60
-30.62
-37.42
-43.36
-48.09
-51.48
-53.64
-54.72
-54.83
-54.07
-52.54
-50.35
-47.65
-44.62
-41.40
-38.12
-34.80
-31.36
-27.74
-23.82
-19.67
-15.41
-11.32
-7.70
-4.77
-2.64
-1.36
-0.93
-1.32
-2.48
-4.26
-6.38
-8.49
-10.28
-11.65
-12.76
-13.99
-15.66
-17.81
-20.09
-21.90
-22.53
-21.47
-18.38
-13.00
-5.10
5.53
18.68
33.41
47.97
60.13
67.96
70.56
68.36
62.89
55.91
48.69
41.57
34.12
25.68
15.91
5.05
-6.22
-17.10
-26.94
-35.26
-41.62
-45.55
-46.52
-44.14
-38.37
-29.67
-18.92
-7.19
4.47
15.29
24.83
32.89
39.44
44.49
48.12
50.40
51.34
50.96
49.18
45.99
41.46
35.89
29.70
23.34
17.16
11.42
6.36
2.30
-0.33
-1.16
-0.09
2.49
5.75
8.69
10.48
10.75
9.69
7.86
5.88
4.23
3.06
2.19
1.29
0.00
-1.82
-4.04
-6.21
-7.79
-8.29
-7.53
-5.69
-3.27
-0.89
0.86
1.55
0.98
-0.75
-3.24
-5.80
-7.57
-7.82
-6.10
-2.46
2.60
8.40
14.29
19.85
24.80
28.95
32.03
33.74
33.92
32.63
30.25
27.31
24.32
21.55
19.00
16.54
14.09
11.72
9.67
8.18
7.37
7.14
7.24
7.35
7.15
6.40
4.85
2.35
-1.13
-5.31
-9.55
-12.97
-14.69
-14.25
-11.82
-8.19
-4.43
-1.45
0.38
1.26
1.74
2.27
2.97
3.46
3.17
1.60
-1.36
-5.40
-9.96
-14.38
-18.14
-20.81
-22.07
-21.65
-19.47
-15.70
-10.91
-5.92
-1.59
1.47
3.21
4.04
4.70
5.88
7.95
10.83
14.08
17.09
19.26
20.19
19.74
18.09
15.64
12.94
10.42
8.19
5.89
2.76
-2.02
-8.91
-17.68
-27.29
-36.11
-42.48
-45.22
-44.02
-39.45
-32.65
-24.88
-17.11
-9.82
-3.13
3.04
8.69
13.68
17.76
20.74
22.57
23.33
23.25
22.57
21.64
20.84
20.58
21.14
22.56
24.54
26.62
28.26
29.13
29.16
28.45
27.07
24.97
21.98
18.01
13.23
8.20
3.61
0.11
-2.16
-3.60
-5.05
-7.36
-11.00
-15.76
-20.87
-25.30
-28.23
-29.30
-28.63
-26.62
-23.73
-20.32
-16.58
-12.65
-8.65
-4.69
-0.75
3.25
7.45
11.88
16.44
20.94
25.21
29.19
32.83
35.87
37.75
37.69
35.11
30.04
23.32
16.31
10.28
5.87
2.87
0.54
-1.77
-4.17
-6.17
-6.98
-6.03
-3.30
0.76
5.52
10.46
15.26
19.71
23.57
26.51
28.26
28.74
28.13
26.89
25.58
24.70
24.58
25.36
26.95
29.06
31.27
33.07
33.98
33.61
31.74
28.38
23.80
18.46
12.87
7.45
2.32
-2.73
-8.12
-14.23
-21.17
-28.60
-35.85
-42.11
-46.77
-49.66
-51.02
-51.32
-51.10
-50.69
-50.23
-49.68
-48.91
-47.82
-46.38
-44.54
-42.29
-39.55
-36.32
-32.64
-28.70
-24.81
-21.26
-18.28
-15.86
-13.79
-11.67
-9.12
-5.87
-1.92
2.37
6.42
9.53
11.24
11.43
10.43
8.86
7.42
6.58
6.46
6.78
6.89
5.93
3.08
-2.14
-9.48
-17.85
-25.43
-30.19
-30.65
-26.53
-18.85
-9.54
-0.62
6.60
11.75
15.21
17.56
19.15
20.03
20.29
20.36
21.02
23.05
26.62
31.09
35.07
37.10
36.43
33.39
29.36
26.13
25.10
26.67
30.18
34.28
37.64
39.50
39.92
39.55
39.18
39.18
39.40
39.25
38.03
35.20
30.48
23.76
15.04
4.57
-6.86
-17.73
-26.01
-29.63
-27.25
-18.63
-4.80
12.34
30.47
47.32
60.96
70.12
74.29
73.78
69.66
63.24
55.70
47.80
39.95
32.61
26.54
22.87
22.61
26.06
32.36
39.72
46.01
49.73
50.47
48.87
45.97
42.49
38.39
33.19
26.50
18.65
10.76
4.21
-0.16
-2.71
-4.91
-8.68
-15.54
-25.87
-38.93
-53.29
-67.54
-80.68
-92.28
-102.13
-110.09
-115.89
-119.29
-120.34
-119.50
-117.52
-115.22
-113.20
-111.70
-110.55
-109.39
-107.90
-105.85
-103.15
-99.79
-95.73
-90.95
-85.46
-79.43
-73.23
-67.38
-62.35
-58.40
-55.39
-52.89
-50.27
-47.08
-43.26
-39.32
-36.19
-34.90
-36.21
-40.24
-46.42
-53.64
-60.57
-66.10
-69.50
-70.48
-69.00
-65.22
-59.47
-52.40
-44.89
-37.97
-32.38
-28.32
-25.38
-22.81
-20.00
-16.79
-13.51
-10.58
-8.24
-6.19
-3.83
-0.58
3.80
9.10
14.84
20.47
25.59
29.96
33.36
35.59
36.50
36.09
34.62
32.56
30.46
28.76
27.67
27.15
26.98
26.86
26.49
25.57
23.84
21.18
17.74
13.96
10.54
8.05
6.78
6.55
6.84
7.08
6.98
6.60
6.31
6.58
7.75
10.01
13.34
17.60
22.50
27.69
32.69
36.99
40.17
41.96
42.28
41.23
39.01
35.93
32.34
28.64
25.19
22.27
19.95
18.09
16.38
14.42
11.83
8.42
4.22
-0.57
-5.53
-10.21
-14.11
-16.81
-18.12
-18.00
-16.63
-14.21
-10.94
-6.95
-2.29
2.94
8.53
14.18
19.57
24.48
28.90
32.98
36.92
40.85
44.74
48.41
51.62
54.13
55.82
56.61
56.48
55.42
53.40
50.37
46.34
41.42
35.94
30.39
25.28
21.04
17.89
15.77
14.38
13.34
12.25
10.83
8.99
6.86
4.68
2.74
1.24
0.20
-0.59
-1.43
-2.62
-4.37
-6.67
-9.38
-12.36
-15.48
-18.76
-22.22
-25.86
-29.57
-33.12
-36.17
-38.52
-40.10
-41.11
-41.86
-42.66
-43.58
-44.43
-44.83
-44.45
-43.17
-41.10
-38.61
-36.12
-33.98
-32.41
-31.44
-31.01
-30.88
-30.73
-30.17
-28.89
-26.70
-23.68
-20.11
-16.34
-12.73
-9.44
-6.56
-4.10
-2.11
-0.65
0.29
0.78
0.97
1.10
1.29
1.65
2.16
2.80
3.49
4.17
4.73
5.07
5.16
5.08
4.97
5.01
5.24
5.47
5.40
4.73
3.37
1.56
-0.26
-1.62
-2.18
-1.90
-1.02
0.02
0.76
0.87
0.21
-1.08
-2.59
-3.86
-4.52
-4.45
-3.78
-2.79
-1.68
-0.51
0.77
2.19
3.61
4.71
5.16
4.75
3.56
1.90
0.21
-1.15
-1.91
-2.01
-1.54
-0.58
0.75
2.33
4.10
5.98
7.97
10.13
12.60
15.62
19.35
23.80
28.64
33.22
36.75
38.63
38.75
37.57
35.95
34.73
34.39
34.83
35.61
36.13
35.91
34.65
32.31
28.88
24.45
19.26
13.73
8.47
4.06
0.85
-1.23
-2.75
-4.46
-7.01
-10.53
-14.58
-18.24
-20.49
-20.73
-19.07
-16.33
-13.69
-12.18
-12.24
-13.69
-15.89
-18.14
-20.08
-21.60
-22.87
-23.95
-24.86
-25.50
-25.85
-26.07
-26.43
-27.31
-28.95
-31.45
-34.65
-38.30
-42.04
-45.57
-48.65
-51.20
-53.36
-55.40
-57.61
-60.15
-62.91
-65.59
-67.80
-69.26
-69.98
-70.34
-70.90
-72.33
-75.13
-79.47
-85.12
-91.62
-98.34
-104.81
-110.90
-116.90
-123.44
-131.29
-140.94
-152.45
-165.27
-178.52
-191.34
-203.36
-214.85
-226.68
-239.91
-255.34
-273.00
-291.76
-309.33
-322.46
-327.64
-321.91
-303.81
-273.73
-233.78
-187.05
-136.53
-84.32
-31.18
23.00
78.63
135.39
191.79
245.12
292.03
329.50
355.71
370.72
376.49
376.12
372.85
368.79
364.45
358.87
350.40
337.68
320.24
298.56
273.57
246.16
217.01
186.71
156.22
127.03
100.86
79.07
61.93
48.54
37.26
26.69
16.52
7.72
2.08
1.07
4.93
12.35
20.93
28.01
31.60
30.82
25.96
18.12
8.80
-0.52
-8.76
-15.40
-20.56
-24.87
-29.06
-33.55
-38.20
-42.37
-45.24
-46.39
-45.99
-44.86
-44.16
-44.96
-47.90
-53.13
-60.24
-68.53
-77.08
-84.89
-91.10
-94.99
-96.21
-94.81
-91.19
-85.95
-79.70
-72.81
-65.43
-57.48
-48.92
-39.86
-30.72
-22.07
-14.53
-8.51
-4.13
-1.25
0.45
1.34
1.71
1.70
1.31
0.46
-0.93
-2.83
-5.11
-7.58
-10.09
-12.63
-15.23
-17.89
-20.38
-22.21
-22.68
-21.16
-17.34
-11.31
-3.55
5.33
14.69
23.99
32.77
40.60
47.05
51.83
54.73
55.74
54.98
52.71
49.31
45.27
41.12
37.33
34.27
32.08
30.68
29.88
29.39
28.89
28.03
26.42
23.65
19.40
13.53
6.20
-1.97
-9.97
-16.59
-20.66
-21.47
-18.96
-13.73
-6.91
0.30
6.93
12.42
16.60
19.52
21.27
21.95
21.81
21.20
20.65
20.67
21.56
23.25
25.37
27.33
28.60
28.85
28.03
26.34
24.11
21.73
19.43
17.29
15.12
12.52
9.01
4.31
-1.43
-7.48
-12.61
-15.46
-14.97
-10.88
-3.78
5.06
14.17
22.29
28.73
33.35
36.39
38.21
39.11
39.31
39.02
38.46
37.90
37.52
37.34
37.20
36.79
35.74
33.74
30.69
26.80
22.45
18.13
14.24
10.93
8.02
5.16
1.95
-1.83
-6.10
-10.50
-14.45
-17.33
-18.64
-18.15
-15.93
-12.37
-8.08
-3.78
-0.20
2.06
2.50
0.79
-3.27
-9.58
-17.73
-26.94
-36.29
-45.00
-52.76
-59.91
-67.23
-75.58
-85.44
-96.65
-108.52
-120.15
-130.90
-140.71
-150.11
-159.95
-170.91
-183.10
-195.80
-207.66
-217.05
-222.64
-223.90
-221.11
-215.04
-206.32
-194.86
-179.70
-159.49
-133.34
-101.64
-66.43
-30.99
1.35
28.34
49.69
67.15
83.73
102.71
126.85
158.00
196.79
242.21
290.84
336.67
372.12
390.17
387.04
364.04
327.33
285.59
246.73
215.06
190.27
168.55
145.09
116.75
83.49
48.17
14.93
-12.96
-34.48
-50.99
-64.91
-77.90
-89.49
-97.53
-100.01
-97.20
-92.63
-91.93
-100.10
-118.78
-145.27
-174.04
-199.83
-220.42
-237.29
-254.14
-273.97
-296.57
-317.98
-332.17
-333.83
-320.84
-295.03
-261.12
-224.57
-189.61
-158.29
-130.83
-106.61
-85.11
-66.27
-50.23
-36.79
-25.08
-13.74
-1.41
12.75
28.78
46.01
63.47
80.47
96.89
113.38
131.19
151.93
176.82
206.02
237.91
269.08
294.94
311.08
314.67
305.29
284.81
256.32
222.90
186.90
149.97
113.70
80.19
51.99
31.34
19.22
14.86
15.97
19.69
23.77
27.13
29.91
32.93
36.82
41.63
46.68
50.96
53.53
53.99
52.51
49.70
46.42
43.43
41.26
40.14
40.06
40.74
41.77
42.78
43.42
43.46
42.69
40.89
37.85
33.58
28.44
23.25
19.09
16.93
17.20
19.61
23.24
27.05
30.31
32.91
35.16
37.40
39.61
41.20
41.34
39.38
35.24
29.56
23.47
18.12
14.23
11.93
10.75
9.89
8.63
6.48
3.35
-0.58
-5.03
-9.68
-14.32
-18.77
-22.94
-26.67
-29.78
-31.93
-32.72
-31.72
-28.64
-23.55
-16.91
-9.52
-2.22
4.45
10.47
16.26
22.39
29.15
36.25
42.81
47.81
50.48
50.68
48.90
45.92
42.45
38.84
35.14
31.35
27.61
24.36
22.08
21.00
20.85
20.86
19.98
17.32
12.51
5.86
-1.72
-9.01
-14.91
-18.69
-20.13
-19.43
-17.02
-13.36
-8.90
-4.04
0.77
5.10
8.54
10.86
11.98
11.96
10.86
8.67
5.50
1.68
-2.04
-4.62
-5.10
-2.90
1.77
8.04
14.55
20.00
23.46
24.56
23.50
20.73
16.84
12.39
7.94
4.07
1.39
0.32
0.92
2.76
5.01
6.77
7.48
7.32
7.09
7.90
10.53
15.01
20.47
25.48
28.64
29.09
26.80
22.46
17.10
11.69
6.72
2.04
-2.99
-9.28
-17.54
-27.85
-39.39
-50.29
-57.96
-59.63
-53.15
-37.61
-13.77
15.83
46.88
73.48
88.97
87.45
66.17
27.66
-19.65
-63.28
-90.78
-94.25
-73.25
-34.40
11.92
55.97
91.71
117.33
133.59
141.75
142.53
136.70
126.05
113.61
102.57
94.52
88.40
80.96
68.64
49.73
25.46
-0.38
-23.16
-39.38
-47.84
-49.89
-48.49
-47.00
-47.92
-52.20
-59.20
-67.19
-74.13
-78.47
-79.56
-77.57
-73.14
-66.94
-59.56
-51.61
-43.97
-37.80
-34.29
-34.03
-36.59
-40.34
-42.93
-42.10
-36.62
-26.83
-14.57
-2.50
6.88
12.09
13.12
11.18
8.09
5.56
4.74
6.09
9.51
14.47
19.96
24.65
27.01
25.81
20.74
12.69
3.64
-3.93
-7.95
-7.42
-2.59
5.29
14.53
23.54
31.15
36.62
39.54
39.71
37.19
32.36
26.01
19.26
13.37
9.38
7.85
8.69
11.14
14.11
16.48
17.47
16.80
14.62
11.41
7.67
3.89
0.38
-2.61
-4.97
-6.76
-8.25
-9.84
-11.91
-14.63
-17.75
-20.64
-22.44
-22.39
-20.10
-15.75
-10.03
-3.91
1.68
6.08
9.10
10.85
11.66
11.89
11.77
11.44
10.96
10.41
9.95
9.74
9.90
10.44
11.24
12.10
12.81
13.18
13.03
12.17
10.45
7.80
4.27
0.09
-4.32
-8.53
-12.14
-15.01
-17.30
-19.31
-21.41
-23.70
-25.96
-27.69
-28.29
-27.34
-24.82
-21.10
-16.76
-12.35
-8.29
-4.79
-2.03
-0.22
0.41
-0.21
-1.80
-3.72
-5.15
-5.38
-4.15
-1.82
0.85
2.96
3.91
3.62
2.48
1.13
0.20
-0.08
0.16
0.46
0.31
-0.69
-2.71
-5.64
-9.19
-12.94
-16.34
-18.76
-19.58
-18.31
-14.80
-9.37
-2.78
3.94
9.84
14.25
16.93
18.04
17.89
16.89
15.46
13.99
12.89
12.56
13.18
14.65
16.51
18.03
18.44
17.20
14.22
9.88
4.97
0.41
-3.03
-5.00
-5.68
-5.77
-6.17
-7.71
-10.77
-15.05
-19.64
-23.33
-25.00
-24.02
-20.48
-15.04
-8.73
-2.61
2.46
6.06
8.12
8.91
8.86
8.46
8.02
7.62
7.09
6.13
4.52
2.25
-0.42
-3.06
-5.32
-7.07
-8.47
-9.88
-11.66
-13.95
-16.63
-19.37
-21.86
-24.02
-26.02
-28.09
-30.38
-32.68
-34.56
-35.60
-35.60
-34.78
-33.53
-32.19
-30.88
-29.57
-28.26
-27.23
-27.04
-28.28
-31.30
-36.01
-42.01
-48.69
-55.41
-61.48
-66.04
-68.03
-66.40
-60.56
-50.78
-38.40
-25.61
-14.77
-7.72
-5.16
-6.50
-10.28
-14.90
-19.31
-23.38
-27.54
-31.98
-35.92
-37.31
-33.57
-22.74
-4.79
17.96
41.51
61.66
75.71
83.37
86.51
87.89
89.71
92.47
95.00
95.20
91.19
82.24
69.09
53.61
38.02
24.01
12.20
2.12
-7.33
-17.23
-28.00
-39.28
-50.26
-60.27
-69.36
-78.26
-87.92
-98.73
-110.03
-120.22
-127.38
-130.17
-128.25
-122.15
-112.66
-100.30
-85.20
-67.54
-48.07
-28.39
-10.53
3.67
13.35
18.74
20.93
21.22
20.72
20.15
19.99
20.67
22.58
25.98
30.80
36.62
42.72
48.34
52.78
55.58
56.57
55.93
54.05
51.49
48.84
46.62
45.27
45.17
46.54
49.34
53.13
56.98
59.68
60.10
57.67
52.69
46.31
40.06
35.31
32.63
31.56
30.79
28.72
24.16
16.77
7.20
-3.23
-13.11
-21.48
-28.05
-33.13
-37.23
-40.69
-43.55
-45.58
-46.65
-46.86
-46.67
-46.68
-47.36
-48.80
-50.57
-51.82
-51.55
-48.90
-43.46
-35.41
-25.49
-14.82
-4.61
4.12
10.73
15.02
17.13
17.37
16.13
13.86
11.09
8.51
6.85
6.60
7.83
10.06
12.41
14.03
14.53
14.15
13.64
13.81
15.02
16.95
18.69
19.17
17.57
13.62
7.57
0.07
-8.08
-16.02
-22.85
-27.67
-29.78
-28.82
-25.02
-19.18
-12.44
-6.03
-0.92
2.45
4.21
4.93
5.37
6.17
7.56
9.35
10.96
11.79
11.43
9.81
7.20
3.99
0.56
-2.76
-5.70
-8.00
-9.50
-10.31
-10.92
-12.14
-14.89
-19.87
-27.30
-36.82
-47.51
-58.13
-67.34
-73.96
-77.19
-76.85
-73.49
-68.33
-62.95
-58.84
-56.85
-56.90
-58.02
-58.79
-58.06
-55.53
-51.92
-48.54
-46.63
-46.53
-47.33
-47.12
-43.54
-34.61
-19.18
2.72
29.91
60.14
90.27
116.82
136.56
147.27
148.26
140.44
125.85
107.09
86.68
66.74
48.97
34.61
24.43
18.57
16.42
16.85
18.48
20.24
21.56
22.36
22.86
23.29
23.73
24.12
24.34
24.36
24.24
24.12
24.08
24.11
24.08
23.84
23.31
22.54
21.68
20.89
20.15
19.25
17.81
15.49
12.15
7.95
3.31
-1.27
-5.37
-8.70
-11.06
-12.29
-12.25
-10.96
-8.65
-5.85
-3.26
-1.52
-0.96
-1.54
-2.86
-4.41
-5.69
-6.40
-6.37
-5.60
-4.17
-2.25
-0.03
2.24
4.29
5.91
6.98
7.48
7.44
6.95
6.05
4.81
3.31
1.61
-0.23
-2.26
-4.56
-7.29
-10.43
-13.74
-16.67
-18.54
-18.80
-17.35
-14.59
-11.24
-8.01
-5.26
-2.91
-0.61
1.89
4.54
6.94
8.61
9.29
9.16
8.70
8.43
8.51
8.65
8.25
6.79
4.16
0.79
-2.51
-4.96
-6.17
-6.27
-5.80
-5.45
-5.74
-6.88
-8.84
-11.40
-14.26
-17.09
-19.54
-21.22
-21.75
-20.88
-18.56
-15.00
-10.64
-6.03
-1.71
1.96
4.77
6.66
7.62
7.62
6.66
4.87
2.52
0.05
-2.07
-3.54
-4.29
-4.50
-4.52
-4.73
-5.41
-6.73
-8.70
-11.12
-13.69
-16.10
-18.12
-19.77
-21.25
-22.77
-24.38
-25.81
-26.49
-25.76
-23.09
-18.30
-11.60
-3.61
4.77
12.48
18.50
22.09
23.00
21.52
18.39
14.60
11.00
8.13
6.14
4.86
3.98
3.23
2.54
2.00
1.86
2.31
3.34
4.62
5.61
5.72
4.61
2.44
-0.14
-2.20
-2.87
-1.63
1.55
6.24
11.78
17.44
22.54
26.55
29.07
29.96
29.40
27.90
26.24
25.27
25.64
27.62
30.98
35.10
39.16
42.38
44.27
44.79
44.29
43.41
42.84
42.98
43.75
44.46
43.97
40.96
34.35
23.82
10.08
-5.05
-19.13
-29.78
-35.38
-35.67
-31.69
-25.28
-18.39
-12.43
-8.06
-5.30
-3.95
-3.81
-4.82
-6.88
-9.75
-13.03
-16.18
-18.68
-20.08
-20.00
-18.17
-14.48
-9.20
-3.03
2.99
7.75
10.52
11.21
10.44
9.19
8.45
8.78
10.25
12.59
15.46
18.68
22.34
26.57
31.37
36.38
40.86
43.85
44.52
42.50
38.04
32.01
25.59
19.89
15.49
12.25
9.46
6.16
1.63
-4.33
-11.29
-18.38
-24.68
-29.50
-32.57
-34.03
-34.30
-33.90
-33.32
-32.92
-32.83
-32.99
-33.14
-32.93
-31.99
-29.95
-26.61
-21.93
-16.17
-10.01
-4.44
-0.53
0.95
-0.13
-3.12
-6.82
-9.94
-11.59
-11.59
-10.38
-8.73
-7.26
-6.26
-5.63
-4.99
-3.97
-2.25
0.32
3.71
7.69
11.68
14.96
16.75
16.63
14.81
12.15
9.96
9.55
11.73
16.47
22.93
29.79
35.61
39.36
40.49
39.02
35.37
30.17
24.10
17.73
11.40
5.13
-1.37
-8.57
-16.98
-26.91
-38.44
-51.36
-65.34
-80.00
-94.98
-109.82
-123.98
-136.91
-148.19
-157.96
-166.99
-176.59
-187.85
-200.88
-214.12
-224.42
-227.87
-221.22
-203.10
-174.46
-137.97
-96.69
-53.04
-8.47
35.81
77.97
115.14
144.04
162.30
169.57
167.77
160.18
149.94
138.96
127.71
115.94
103.60
91.48
80.91
73.14
68.62
66.76
66.31
65.93
64.67
62.14
58.44
53.82
48.46
42.44
35.81
28.83
22.02
16.16
11.89
9.47
8.52
8.15
7.34
5.40
2.36
-1.09
-4.01
-5.70
-6.11
-5.80
-5.66
-6.34
-7.98
-10.14
-12.07
-13.08
-12.75
-11.13
-8.61
-5.91
-3.98
-3.86
-6.38
-11.73
-19.17
-27.04
-33.16
-35.58
-33.28
-26.50
-16.62
-5.61
4.62
12.67
17.82
19.89
19.15
16.25
12.31
8.74
7.02
8.14
12.11
17.93
23.82
27.90
28.87
26.38
21.09
14.25
7.18
1.00
-3.55
-6.05
-6.28
-4.24
-0.29
4.78
9.93
14.02
16.30
16.72
15.97
15.33
16.14
19.17
24.13
29.54
33.10
32.55
26.64
15.94
2.79
-9.38
-17.34
-19.30
-15.71
