1574760121.00
64.000000
-0.00
-0.00
-0.00
-0.00
-0.00
-0.00
-0.00
-0.00
-0.00
-0.00
0.00
0.01
0.01
-0.00
-0.03
-0.05
-0.05
0.00
0.13
0.36
0.66
1.01
1.37
1.72
2.06
2.40
2.79
3.24
3.80
4.42
5.06
5.66
6.20
6.68
7.15
7.68
8.31
9.14
10.09
11.04
11.88
12.56
13.14
13.76
14.65
15.96
17.91
20.32
22.90
25.38
27.58
29.57
31.68
34.32
37.81
42.54
48.15
54.10
59.83
64.97
69.58
74.14
79.34
85.71
93.76
103.00
112.62
121.73
129.77
136.75
143.30
150.75
157.77
166.64
177.95
191.79
206.97
220.57
228.25
225.36
208.53
176.87
132.76
80.05
23.07
-34.94
-92.44
-149.16
-205.23
-260.37
-313.74
-363.86
-409.81
-450.87
-486.44
-515.65
-537.10
-549.06
-549.75
-538.11
-513.89
-478.30
-433.45
-381.95
-326.46
-269.21
-211.93
-155.88
-102.10
-51.44
-4.88
36.70
72.65
102.68
126.95
145.97
160.43
171.05
178.46
183.05
185.11
184.86
182.59
178.64
173.41
167.33
160.73
153.86
146.87
139.84
132.79
125.77
118.85
112.10
105.59
99.37
93.47
87.92
82.72
77.88
73.40
69.30
65.59
62.28
59.36
56.85
54.72
52.96
51.53
50.37
49.38
48.44
47.42
46.13
44.41
42.10
39.09
35.31
30.79
25.53
19.70
13.48
7.09
0.82
-5.10
-10.44
-15.00
-18.67
-21.38
-23.12
-23.96
-23.97
-23.30
-22.06
-20.39
-18.41
-16.22
-13.87
-11.43
-8.94
-6.43
-3.92
-1.41
1.09
3.62
6.18
8.82
11.55
14.35
17.18
20.03
22.89
25.73
28.58
31.43
34.31
37.32
40.36
43.44
46.58
49.82
53.23
56.87
60.83
65.19
70.05
75.28
80.78
86.50
92.36
98.35
104.43
110.59
116.83
123.20
129.41
135.23
140.45
144.83
148.08
149.87
149.66
146.78
142.52
137.31
131.46
125.14
118.50
111.69
104.82
98.04
91.51
85.43
79.73
74.34
69.31
64.65
60.39
56.54
53.09
50.06
47.46
45.07
42.70
40.26
37.66
34.84
31.82
28.64
25.36
22.14
18.92
15.77
12.73
9.88
7.28
4.97
2.95
1.26
-0.13
-1.29
-2.28
-3.12
-3.83
-4.41
-4.89
-5.25
-5.57
-5.85
-6.13
-6.42
-6.70
-6.95
-7.13
-7.26
-7.38
-7.59
-8.00
-8.70
-9.73
-11.05
-12.57
-14.20
-15.93
-17.79
-19.95
-22.54
-25.70
-29.37
-33.39
-37.52
-41.53
-45.35
-49.13
-53.22
-58.06
-63.90
-70.78
-78.44
-86.40
-94.25
-101.77
-109.14
-116.86
-125.53
-135.61
-147.15
-159.78
-173.05
-186.28
-199.30
-212.20
-225.42
-239.69
-255.91
-275.14
-298.14
-324.80
-353.57
-381.30
-403.87
-417.46
-419.70
-410.43
-391.46
-365.59
-335.63
-303.71
-271.27
-239.43
-209.24
-181.69
-157.40
-136.41
-118.18
-101.97
-87.07
-73.02
-59.65
-46.88
-35.01
-24.29
-15.21
-8.00
-2.52
1.99
6.53
12.09
19.00
26.87
34.70
41.32
45.90
48.25
48.71
47.95
46.55
44.81
42.92
40.98
39.30
38.36
38.58
40.06
42.37
44.58
45.75
45.03
42.18
37.53
31.79
25.83
20.31
15.62
11.73
8.32
4.90
1.15
-2.95
-6.84
-9.70
-10.74
-9.53
-6.38
-2.21
1.97
5.34
7.67
9.45
11.19
13.36
16.15
19.65
24.08
29.71
36.65
44.50
51.97
57.36
59.10
56.43
49.82
40.71
30.87
21.69
13.82
7.15
1.27
-4.28
-9.69
-15.09
-20.64
-26.63
-33.35
-40.87
-48.78
-56.29
-62.14
-65.18
-64.93
-61.71
-56.79
-51.91
-48.60
-47.63
-48.80
-51.20
-53.76
-55.90
-57.65
-59.71
-62.93
-67.99
-75.15
-84.10
-94.24
-104.92
-115.47
-125.53
-134.66
-142.26
-147.20
-147.76
-142.04
-128.29
-105.63
-74.46
-36.44
5.87
49.56
92.00
131.07
165.31
193.75
215.71
230.91
239.57
242.38
240.54
235.48
228.48
220.59
212.27
203.54
194.17
183.85
172.51
160.38
147.98
135.86
124.45
113.83
103.73
93.84
84.05
74.67
66.28
59.47
54.51
51.02
48.22
45.21
41.32
36.55
31.21
25.88
21.00
16.64
12.64
8.80
4.99
1.48
-1.45
-3.61
-5.08
-6.35
-7.82
-9.80
-12.22
-14.72
-17.08
-19.48
-22.23
-25.73
-29.63
-32.75
-33.48
-30.33
-22.84
-11.90
0.59
12.24
21.10
26.20
27.49
25.88
22.66
19.11
16.24
14.57
14.14
14.74
15.99
17.58
19.37
21.14
22.84
24.16
24.99
25.35
25.41
25.44
25.47
25.20
24.29
22.50
19.92
17.01
14.36
12.35
11.07
10.19
9.33
8.17
6.58
4.67
2.72
1.12
0.45
1.11
3.27
6.64
10.39
13.58
15.49
16.08
15.97
16.02
16.84
18.36
19.86
20.42
19.48
17.14
14.10
11.23
9.03
7.57
6.46
5.31
4.02
2.68
1.53
0.56
-0.45
-1.69
-3.23
-4.70
-5.43
-4.94
-3.03
-0.12
3.03
5.59
6.86
6.43
4.12
-0.10
-6.15
-13.59
-21.66
-29.31
-35.35
-38.78
-38.98
-35.73
-29.35
-20.36
-9.61
2.04
13.70
24.37
33.10
38.90
40.96
38.91
33.02
24.42
14.95
6.62
1.05
-1.11
-0.31
2.23
5.04
6.93
7.54
6.97
5.70
4.07
2.01
-0.68
-4.14
-8.16
-11.98
-14.89
-16.53
-17.25
-17.96
-19.45
-21.88
-24.45
-25.81
-25.01
-22.08
-18.04
-14.10
-10.43
-5.57
3.22
18.59
41.51
70.29
100.84
128.00
147.25
156.27
155.15
145.98
131.63
114.61
96.43
77.63
58.34
38.93
20.13
2.98
-11.81
-24.40
-35.62
-46.41
-56.99
-66.32
-72.49
-73.62
-68.75
-58.71
-45.70
-32.54
-21.74
-14.73
-11.81
-12.30
-14.87
-18.06
-20.51
-21.25
-19.94
-16.92
-12.98
-9.05
-5.79
-3.43
-1.82
-0.53
0.87
2.77
5.47
8.98
13.10
17.25
20.67
22.73
23.14
22.10
20.11
17.42
14.00
9.36
3.02
-5.09
-14.41
-23.89
-32.34
-38.98
-43.56
-46.34
-47.86
-48.60
-48.71
-48.03
-46.06
-42.31
-36.56
-29.11
-20.98
-13.46
-7.76
-4.47
-3.36
-3.57
-4.08
-4.14
-3.63
-2.92
-2.50
-2.78
-3.82
-5.37
-7.05
-8.47
-9.37
-9.76
-9.80
-9.95
-10.68
-12.37
-15.10
-18.45
-21.68
-23.78
-23.97
-21.88
-17.80
-12.48
-6.92
-1.97
1.88
4.65
6.63
8.21
9.58
10.74
11.44
11.45
10.75
9.54
8.27
7.43
7.29
7.77
8.37
8.26
6.72
3.34
-1.66
-7.58
-13.38
-18.15
-21.28
-22.53
-21.99
-19.98
-17.13
-14.22
-12.21
-11.77
-12.91
-14.98
-16.73
-16.94
-14.99
-11.06
-6.14
-1.28
2.77
5.88
8.64
11.61
15.20
19.29
23.26
26.43
28.21
28.33
27.00
24.64
21.86
19.19
17.06
15.65
14.91
14.61
14.27
13.42
11.50
8.13
3.02
-3.70
-11.50
-19.38
-25.89
-29.70
-29.79
-26.13
-19.62
-11.83
-4.45
1.33
5.21
7.56
9.15
10.53
11.96
13.25
14.19
14.74
15.11
15.67
16.68
18.04
19.52
20.71
21.48
22.01
22.48
23.06
23.42
22.88
20.70
16.34
9.73
1.22
-8.53
-18.83
-28.77
-37.35
-43.32
-45.30
-42.33
-34.23
-22.21
-8.67
3.17
10.20
10.29
3.01
-10.31
-26.92
-43.68
-57.82
-67.74
-73.01
-73.91
-70.94
-64.39
-54.43
-41.82
-28.06
-15.70
-7.44
-5.28
-9.57
-19.06
-31.83
-46.24
-61.45
-77.01
-91.86
-103.93
-110.54
-109.97
-102.81
-92.24
-82.70
-77.37
-76.13
-75.26
-69.30
-54.12
-29.22
1.76
32.84
58.45
75.66
84.72
88.07
88.52
88.02
87.33
86.64
86.32
86.94
88.60
90.39
89.98
84.66
72.81
55.08
34.79
16.68
5.18
2.78
9.29
22.33
38.30
53.21
63.64
66.92
61.80
49.09
31.49
13.29
-1.06
-8.57
-8.64
-3.13
4.74
11.94
16.62
18.43
17.93
15.71
12.15
7.26
1.16
-5.58
-12.16
-17.56
-21.15
-23.02
-23.75
-24.30
-25.36
-27.17
-29.44
-31.60
-32.99
-33.23
-31.93
-28.92
-24.05
-17.39
-9.34
-0.75
7.36
14.00
18.52
20.65
20.45
18.23
14.47
10.10
6.28
4.37
5.22
8.72
13.52
17.45
18.53
15.95
10.66
5.10
1.97
2.93
7.61
13.74
18.40
19.43
16.60
11.68
7.38
5.99
8.32
13.52
19.92
25.91
30.79
34.81
38.45
41.90
44.56
45.27
43.00
37.50
29.42
20.28
11.40
3.52
-3.58
-10.84
-19.11
-28.76
-39.21
-49.19
-57.31
-62.37
-63.91
-62.12
-57.68
-51.54
-44.59
-37.60
-31.17
-25.64
-21.06
-17.27
-13.88
-10.56
-7.09
-3.57
-0.35
2.04
3.20
3.01
1.70
-0.08
-1.64
-2.31
-1.80
-0.15
2.27
4.98
7.51
9.40
10.44
10.50
9.61
7.84
5.29
2.20
-1.22
-4.70
-7.91
-10.73
-12.88
-14.19
-14.45
-13.39
-10.84
-6.78
-1.37
4.78
11.03
16.43
20.31
22.34
22.55
21.45
19.58
17.53
15.68
14.23
13.24
12.71
12.58
12.72
12.90
12.70
11.74
9.69
6.38
2.01
-3.07
-8.31
-13.05
-16.76
-18.89
-19.07
-17.08
-13.03
-7.31
-0.57
6.45
13.01
18.54
22.45
24.40
24.20
22.03
18.61
14.91
12.01
10.35
9.85
9.73
9.12
7.48
4.81
1.60
-1.55
-4.31
-6.77
-9.36
-12.57
-16.63
-21.46
-26.61
-31.41
-35.24
-37.43
-37.54
-35.51
-31.73
-27.17
-23.09
-20.59
-20.24
-21.86
-24.63
-27.59
-30.08
-32.07
-34.09
-36.53
-39.51
-42.50
-44.71
-45.53
-45.13
-44.57
-45.62
-50.09
-59.26
-73.17
-90.77
-109.97
-127.98
-141.93
-149.04
-147.47
-136.99
-119.51
-98.96
-80.09
-66.70
-60.00
-58.22
-57.44
-53.80
-45.40
-32.90
-18.87
-5.64
6.33
19.01
35.99
60.09
91.23
125.55
156.49
177.56
185.38
181.15
170.17
159.14
153.23
153.54
158.09
163.87
169.37
175.77
184.80
196.51
207.69
213.12
208.62
194.02
173.78
154.42
141.03
134.31
130.31
123.35
108.93
86.36
58.62
30.10
4.39
-17.35
-36.15
-53.83
-71.62
-89.49
-106.04
-119.51
-128.65
-133.50
-134.88
-134.38
-132.89
-130.17
-125.12
-116.04
-102.04
-83.54
-62.19
-39.83
-17.41
5.54
30.48
58.23
87.62
114.81
134.07
140.68
132.96
113.71
89.20
66.24
49.42
39.59
34.38
30.39
25.79
21.09
18.49
20.12
26.68
36.91
48.78
59.70
67.74
71.55
70.10
63.21
51.35
36.15
20.01
5.70
-4.50
-9.36
-8.85
-4.17
2.98
10.56
16.31
18.74
17.08
11.97
5.36
-0.22
-2.46
-0.12
6.46
15.47
24.27
30.31
32.20
30.26
26.29
22.63
21.18
22.06
24.38
26.66
27.80
28.20
29.02
31.54
36.16
42.08
47.60
51.14
52.04
50.68
48.57
47.29
47.31
48.27
48.64
46.88
42.27
35.03
26.20
16.73
6.94
-3.39
-14.49
-26.02
-36.99
-46.18
-53.30
-59.45
-66.78
-78.00
-94.59
-116.19
-140.91
-165.93
-189.30
-210.50
-230.06
-248.29
-263.98
-274.05
-274.79
-263.98
-242.70
-215.50
-189.33
-170.30
-161.46
-161.69
-166.41
-170.03
-168.13
-158.65
-141.89
-119.47
-93.25
-64.94
-35.93
-7.32
19.83
44.51
65.97
83.57
97.04
106.40
112.00
114.49
114.51
112.62
109.14
104.19
97.89
90.35
82.03
73.59
65.80
59.33
54.29
50.19
46.04
40.65
33.25
23.78
12.85
1.56
-9.09
-18.52
-26.53
-33.25
-38.59
-42.19
-43.59
-42.52
-39.14
-34.13
-28.18
-22.01
-15.88
-9.86
-4.09
1.15
5.35
8.00
9.03
8.80
8.08
7.74
8.29
9.83
11.97
14.15
15.90
17.05
17.67
17.87
17.52
16.26
13.69
9.53
3.95
-2.52
-9.19
-15.60
-21.68
-27.78
-34.11
-40.45
-45.97
-49.43
-49.84
-46.91
-41.32
-34.47
-27.66
-21.65
-16.42
-11.26
-5.59
0.68
7.12
13.06
18.13
22.51
26.65
31.01
35.47
39.50
42.40
43.69
43.52
42.41
41.01
39.82
39.04
38.57
38.36
38.07
37.40
35.95
33.38
29.75
25.40
20.96
16.99
13.67
10.91
8.39
5.66
2.43
-1.61
-6.66
-12.77
-19.58
-26.29
-31.64
-34.36
-33.59
-29.26
-22.19
-13.73
-5.35
1.85
7.50
11.79
15.30
18.53
21.62
24.42
26.50
27.62
27.83
27.57
27.46
27.96
29.13
30.56
31.64
31.79
30.88
29.22
27.33
25.62
24.09
22.34
20.06
17.08
13.74
10.67
8.24
6.59
5.22
3.35
0.23
-4.63
-11.14
-18.57
-25.73
-31.10
-33.32
-31.56
-25.87
-17.30
-7.51
1.79
9.27
14.45
17.52
19.05
19.76
20.09
20.36
20.76
21.38
22.33
23.58
24.99
26.21
26.74
26.21
24.52
21.84
18.66
15.40
12.30
9.26
6.05
2.48
-1.35
-5.04
-8.22
-10.63
-12.52
-14.54
-17.49
-22.02
-28.14
-35.10
-41.46
-45.35
-45.14
-39.99
-30.10
-16.89
-2.42
11.19
22.33
30.26
35.06
37.27
37.73
37.09
35.92
34.64
33.44
32.45
31.72
31.15
30.73
30.27
29.57
28.38
26.27
23.05
18.69
13.50
8.02
2.80
-1.84
-5.75
-9.09
-12.05
-14.87
-17.81
-21.06
-24.82
-29.04
-33.39
-37.25
-39.77
-40.12
-37.83
-32.97
-26.23
-18.73
-11.60
-5.59
-1.03
2.36
5.01
7.32
9.43
11.23
12.50
13.22
13.56
13.89
14.64
15.90
17.64
19.43
20.83
21.49
21.21
19.96
17.85
15.03
11.81
8.51
5.49
3.11
1.32
-0.08
-1.59
-3.83
-7.15
-11.74
-17.52
-24.10
-31.03
-37.43
-42.14
-44.03
-42.19
-36.48
-27.65
-17.23
-7.09
1.21
6.91
10.04
11.43
12.10
13.00
14.61
16.89
19.45
21.74
23.35
24.11
24.10
23.46
22.36
20.89
19.14
17.19
15.19
13.30
11.56
9.89
8.04
5.82
3.07
-0.13
-3.49
-6.70
-9.48
-11.79
-13.93
-16.32
-19.46
-23.61
-28.57
-33.67
-37.86
-39.99
-39.26
-35.32
-28.63
-20.26
-11.51
-3.69
2.47
6.80
9.58
11.49
12.92
14.13
15.04
15.42
15.27
14.72
14.06
13.64
13.54
13.70
13.94
14.01
13.76
13.16
12.11
10.55
8.40
5.66
2.45
-1.02
-4.56
-7.94
-11.10
-14.11
-17.12
-20.46
-24.38
-28.91
-33.64
-37.67
-39.74
-38.63
-33.78
-25.60
-15.56
-5.54
2.68
8.15
10.97
11.83
11.82
11.58
11.28
10.85
10.09
9.09
8.18
7.74
8.12
9.24
10.78
12.18
12.78
12.13
10.07
6.79
2.84
-1.12
-4.65
-7.51
-9.84
-11.87
-13.77
-15.72
-17.85
-20.44
-23.82
-28.04
-32.66
-36.65
-38.55
-37.43
-33.03
-26.10
-18.08
-10.37
-3.94
1.01
4.62
7.22
8.78
9.18
8.30
6.31
3.78
1.46
0.02
-0.22
0.56
1.86
3.04
3.58
3.35
2.44
1.15
-0.21
-1.63
-3.28
-5.62
-9.09
-13.86
-19.74
-26.30
-33.07
-39.96
-47.04
-54.36
-61.52
-67.39
-70.52
-69.69
-64.36
-55.07
-42.91
-29.03
-14.20
1.44
17.92
35.00
51.96
67.49
80.27
89.28
94.12
95.00
92.67
88.16
82.64
77.00
71.82
67.14
62.63
57.81
52.35
46.22
39.61
32.78
25.83
18.72
11.33
3.69
-4.05
-11.68
-19.16
-26.58
-34.14
-41.66
-48.46
-53.40
-55.19
-53.16
-47.53
-39.42
-30.53
-22.41
-15.90
-11.16
-7.64
-4.66
-1.70
1.48
4.76
7.97
10.99
13.75
16.25
18.47
20.18
21.29
21.62
21.24
20.37
19.16
17.77
16.05
13.68
10.39
5.99
0.78
-4.69
-9.75
-13.89
-17.05
-19.65
-22.41
-26.03
-30.74
-36.09
-41.02
-44.18
-44.37
-40.98
-34.18
-25.00
-14.99
-5.85
1.29
6.03
8.87
10.76
12.52
14.54
16.55
18.04
18.65
18.50
18.07
17.97
18.39
19.17
19.84
19.92
19.26
17.91
16.01
13.61
10.53
6.79
2.55
-1.69
-5.28
-7.87
-9.45
-10.56
-12.08
-14.70
-18.80
-24.14
-29.84
-34.70
-37.37
-36.83
-32.79
-25.74
-17.00
-8.18
-0.67
4.86
8.47
10.78
12.33
13.31
13.60
13.02
11.75
10.42
9.77
10.44
12.35
14.91
17.23
18.52
18.53
17.34
15.34
12.98
10.57
8.37
6.42
4.62
2.80
0.68
-2.00
-5.61
-10.38
-16.53
-23.93
-31.93
-39.43
-44.84
-46.75
-44.40
-37.96
-28.84
-18.83
-9.71
-2.53
2.67
6.39
9.32
11.88
14.12
15.83
16.88
17.37
17.65
18.09
18.86
19.84
20.64
20.92
20.59
19.79
18.86
18.01
17.11
15.86
13.80
10.81
7.24
3.72
1.06
-0.37
-0.76
-0.78
-1.56
-3.91
-8.28
-14.49
-21.64
-28.44
-33.41
-35.33
-33.48
-27.94
-19.52
-9.72
-0.15
7.83
13.55
17.18
19.40
21.06
22.80
24.78
26.84
28.73
30.25
31.40
32.32
33.11
33.79
34.18
33.98
32.96
30.99
28.22
24.98
21.70
18.79
16.45
14.52
12.68
10.51
7.78
4.58
1.16
-2.00
-4.67
-6.82
-8.75
-10.98
-14.08
-18.32
-23.71
-29.80
-35.77
-40.72
-43.67
-43.96
-41.32
-35.88
-28.35
-19.74
-11.22
-3.81
1.96
6.07
8.93
11.14
13.09
14.93
16.55
17.81
18.64
19.19
19.55
19.83
19.89
19.62
18.93
17.87
16.71
15.70
14.88
14.13
13.05
11.29
8.86
5.91
2.84
-0.12
-3.03
-6.07
-9.38
-12.81
-15.98
-18.53
-20.42
-21.83
-22.96
-23.69
-23.33
-21.11
-16.59
-10.07
-2.81
3.74
8.47
11.14
12.46
13.40
14.73
16.63
18.62
20.17
20.89
20.85
20.40
19.85
19.38
18.90
18.19
17.02
15.29
12.97
10.27
7.49
4.92
2.85
1.19
-0.44
-2.57
-5.82
-10.25
-15.60
-21.23
-26.31
-30.33
-32.92
-34.00
-33.51
-31.34
-27.49
-22.14
-15.78
-9.17
-3.03
2.06
5.77
8.07
9.10
9.12
8.46
7.51
6.65
6.26
6.50
7.30
8.34
9.11
9.19
8.32
6.62
4.51
2.46
0.85
-0.24
-1.16
-2.31
-4.23
-7.18
-11.13
-15.69
-20.33
-24.34
-27.06
-27.94
-26.68
-23.33
-18.32
-12.31
-6.14
-0.45
4.34
8.03
10.60
11.97
12.09
11.06
9.22
7.21
5.78
5.42
6.24
7.74
9.15
9.73
9.07
7.29
4.80
2.02
-0.80
-3.74
-7.08
-10.94
-15.36
-20.07
-24.62
-28.58
-31.41
-32.73
-32.35
-30.17
-26.57
-22.08
-17.29
-12.73
-8.56
-4.87
-1.68
0.89
2.60
3.37
3.40
3.07
2.96
3.37
4.38
5.76
7.18
8.29
8.87
8.74
7.80
6.06
3.62
0.82
-2.05
-4.79
-7.38
-10.02
-12.92
-16.22
-19.91
-23.67
-26.93
-28.94
-28.92
-26.46
-21.67
-15.20
-8.02
-1.07
5.16
10.46
14.89
18.42
20.92
22.19
22.31
21.58
20.60
19.93
19.87
20.38
20.96
21.04
20.02
17.55
13.75
9.09
4.38
0.51
-2.06
-3.40
-4.12
-5.08
-7.01
-10.33
-15.01
-20.57
-26.35
-31.38
-34.62
-35.13
-32.30
-26.19
-17.63
-8.09
0.75
7.40
11.19
12.30
11.66
10.55
10.02
10.59
12.14
14.17
16.11
17.64
18.74
19.55
20.07
20.14
19.50
17.99
15.66
12.85
9.94
7.36
5.35
3.96
3.15
2.60
1.95
0.82
-1.11
-3.93
-7.61
-12.03
-16.94
-22.01
-26.63
-29.98
-31.17
-29.55
-25.03
-18.26
-10.45
-3.00
3.03
7.24
9.90
11.68
13.25
14.95
16.73
18.25
19.13
19.28
18.69
17.63
16.43
15.30
14.53
14.19
14.30
14.59
14.70
14.15
12.61
10.04
6.85
3.73
1.51
0.82
1.92
4.50
7.62
9.99
10.09
6.82
-0.20
-10.22
-21.35
-31.12
-37.14
-38.00
-33.75
-25.71
-16.03
-6.66
1.22
7.33
11.98
15.53
18.07
19.39
19.35
18.12
16.40
14.99
14.50
15.09
16.20
17.02
16.79
15.06
12.04
8.34
4.79
2.13
0.56
-0.15
-0.63
-1.56
-3.30
-5.85
-8.81
-11.74
-14.46
-17.11
-20.07
-23.51
-27.14
-29.94
-30.58
-27.84
-21.32
-11.78
-1.01
8.74
15.64
18.94
19.08
17.54
16.09
16.09
18.04
21.43
25.05
27.71
28.59
27.75
25.91
24.10
23.09
23.05
23.39
23.21
21.69
18.59
14.45
10.37
7.45
6.33
6.72
7.65
7.85
6.13
1.90
-5.13
-14.77
-26.02
-36.44
-41.89
-37.55
-20.11
9.85
46.67
81.19
104.12
110.06
99.73
79.07
56.14
37.21
24.57
16.93
11.57
6.71
2.49
0.28
1.06
4.30
7.99
9.55
7.39
1.57
-6.20
-13.39
-18.17
-19.92
-19.61
-18.95
-19.48
-21.68
-24.78
-27.38
-28.28
-27.39
-25.85
-25.31
-27.15
-31.31
-36.20
-39.43
-38.81
-33.89
-26.13
-18.32
-13.27
-12.28
-14.68
-18.22
-20.51
-20.25
-17.87
-15.19
-14.07
-15.49
-19.20
-24.05
-28.81
-32.18
-32.39
-27.12
-14.24
6.57
32.26
56.49
71.80
72.80
58.84
34.52
7.26
-15.92
-31.37
-39.35
-42.43
-43.40
-43.45
-42.31
-39.12
-33.63
-26.61
-19.48
-13.61
-9.71
-7.51
-6.28
-4.97
-2.90
-0.11
2.89
5.12
5.80
4.63
2.11
-0.68
-2.54
-2.62
-0.98
1.56
3.72
4.29
2.87
-0.18
-3.79
-6.68
-8.06
-7.86
-6.88
-6.32
-7.35
-10.48
-15.39
-20.93
-25.62
-28.27
-28.32
-26.09
-22.54
-18.66
-15.21
-12.34
-9.72
-7.11
-4.28
-1.61
0.42
1.35
1.08
0.08
-0.93
-1.22
-0.37
1.27
3.01
3.85
3.11
0.77
-2.62
-5.99
-8.39
-9.41
-9.35
-9.05
-9.55
-11.55
-15.14
-19.82
-24.63
-28.75
-31.85
-33.86
-35.05
-35.45
-34.79
-32.94
-29.91
-26.51
-23.80
-22.85
-24.07
-26.95
-30.46
-33.72
-36.69
-40.58
-47.04
-57.44
-71.32
-86.18
-98.20
-103.69
-101.11
-91.70
-78.64
-64.97
-51.89
-38.61
-23.90
-8.16
5.56
12.80
9.98
-2.75
-21.34
-39.54
-51.81
-56.02
-53.41
-47.27
-40.43
-33.96
-27.41
-20.02
-12.07
-5.02
-0.77
-0.68
-4.59
-11.01
-17.28
-20.42
-18.08
-9.06
5.92
24.30
42.16
55.42
61.26
59.15
50.96
39.99
29.47
21.26
15.32
10.44
5.28
-0.60
-6.48
-11.16
-13.69
-14.03
-13.00
-11.76
-11.24
-11.68
-12.75
-13.73
-14.06
-13.49
-11.95
-9.42
-5.58
0.08
7.94
17.97
29.26
40.26
49.25
55.02
57.43
57.56
57.27
58.45
62.07
67.77
73.95
78.52
79.85
77.40
71.89
64.74
57.35
50.59
44.58
39.07
33.87
29.05
24.89
21.53
18.78
16.07
12.79
8.60
3.61
-1.71
-6.80
-11.07
-14.18
-15.85
-15.83
-13.90
-10.04
-4.42
2.52
10.21
18.30
26.63
35.21
44.00
52.57
60.08
65.42
67.84
67.28
64.66
61.49
59.34
59.24
61.73
67.00
75.16
86.06
98.64
110.79
119.49
122.05
117.54
107.53
95.61
85.71
80.29
79.25
80.48
81.34
80.50
78.70
78.36
82.56
93.77
113.08
139.80
171.48
204.21
233.41
255.13
267.14
269.63
264.96
256.65
247.87
240.60
235.37
231.81
229.39
227.65
226.20
224.16
220.25
212.97
201.25
184.97
164.99
142.82
119.95
97.36
75.22
53.15
30.65
7.58
-15.65
-38.19
-59.10
-77.74
-94.08
-108.60
-122.02
-134.93
-147.58
-160.00
-172.05
-183.81
-195.66
-208.07
-221.55
-236.48
-253.15
-271.94
-293.03
-316.30
-340.71
-364.24
-384.16
-397.70
-402.90
-399.03
-386.81
-368.07
-345.19
-320.70
-296.87
-275.52
-257.89
-244.80
-236.49
-232.88
-233.47
-237.59
-244.61
-254.41
-267.93
-287.14
-314.01
-348.68
-388.06
-425.49
-452.68
-462.87
-453.65
-428.01
-392.72
-355.38
-321.23
-292.00
-266.57
-243.02
-220.39
-199.03
-179.86
-163.16
-147.88
-132.01
-113.72
-92.44
-69.08
-45.84
-24.90
-7.48
6.71
19.33
32.54
47.96
66.01
85.65
105.11
122.59
137.29
149.54
160.66
172.44
186.44
203.63
224.05
246.54
268.80
287.58
299.37
301.55
293.19
275.64
252.02
226.14
201.27
179.20
160.31
144.18
130.39
118.98
110.22
104.16
100.19
97.06
93.76
90.07
87.20
87.43
92.85
104.35
121.19
141.26
162.06
181.39
197.76
210.58
220.07
227.15
233.13
239.19
245.51
250.84
252.50
247.44
233.56
210.78
181.16
147.90
113.99
81.01
49.08
17.30
-15.71
-51.19
-90.11
-132.82
-178.46
-224.98
-268.93
-305.88
-331.56
-342.62
-337.68
-317.73
-285.87
-246.65
-205.00
-165.13
-129.67
-99.42
-73.41
-49.43
-24.83
2.66
33.87
67.70
101.20
130.34
151.44
162.31
163.00
155.44
142.51
126.94
110.42
93.57
76.46
59.22
42.57
27.93
16.91
11.02
10.97
16.49
26.38
38.81
51.92
64.32
75.21
84.15
90.85
94.89
95.85
93.61
88.59
81.98
75.47
70.66
68.70
69.63
72.53
75.81
77.72
76.92
72.87
65.98
57.30
48.25
40.03
33.36
28.20
24.04
20.10
15.65
10.28
3.66
-4.32
-13.66
-23.88
-33.73
-41.40
-44.95
-43.21
-36.58
-27.12
-17.85
-11.50
-9.44
-11.27
-15.31
-19.56
-22.51
-23.38
-21.80
-17.33
-9.45
1.90
15.98
30.76
43.80
53.16
58.54
61.41
64.13
68.48
74.43
79.86
81.43
76.09
62.30
40.74
13.87
-14.81
-41.86
-64.56
-81.24
-91.38
-95.44
-94.47
-90.09
-84.13
-78.45
-74.61
-73.32
-74.13
-75.46
-75.09
-71.13
-63.01
-51.66
-39.40
-28.64
-20.99
-16.62
-14.38
-12.92
-11.34
-9.51
-7.57
-5.33
-1.93
3.58
11.35
20.10
27.43
30.82
29.27
23.95
18.00
15.13
17.85
26.44
38.95
52.21
63.23
70.31
73.31
73.20
71.16
67.96
63.53
57.46
49.49
40.15
30.69
22.49
16.35
11.80
7.30
1.01
-8.02
-19.36
-31.07
-40.59
-45.87
-46.24
-42.60
-37.16
-32.03
-28.64
-27.00
-25.89
-23.85
-19.84
-13.97
-7.34
-1.23
3.50
6.80
9.30
11.62
14.08
16.34
17.96
18.72
19.06
19.94
22.29
26.43
31.65
36.35
38.63
37.24
32.10
24.48
16.31
9.39
4.61
1.81
0.07
-1.38
-2.76
-3.70
-3.37
-1.40
2.18
6.68
11.24
15.25
18.47
21.04
23.11
24.58
25.03
23.90
20.97
16.61
11.91
8.26
6.71
7.39
9.31
10.79
10.22
6.69
0.49
-7.30
-15.35
-22.62
-28.61
-33.14
-36.15
-37.35
-36.42
-33.28
-28.27
-22.26
-16.27
-11.00
-6.58
-2.61
1.33
5.29
8.71
10.78
10.85
8.85
5.44
1.67
-1.48
-3.49
-4.38
-4.50
-4.46
-4.85
-6.16
-8.79
-12.76
-17.55
-22.20
-25.47
-26.39
-24.55
-20.43
-14.96
-9.25
-3.98
0.74
5.17
9.66
14.15
18.34
21.72
24.02
25.30
25.88
26.13
26.15
25.72
24.47
22.13
18.84
15.05
11.31
8.00
5.03
2.02
-1.43
-5.31
-8.93
-11.11
-10.59
-6.66
0.48
9.78
19.67
28.71
35.89
40.86
43.69
44.53
43.56
40.85
36.70
31.63
26.34
21.51
17.60
14.71
12.58
10.69
8.50
5.52
1.55
-3.35
-8.87
-14.49
-19.62
-23.65
-26.10
-26.65
-25.27
-22.22
-18.09
-13.58
-9.30
-5.70
-2.82
-0.52
1.38
2.94
4.12
4.82
5.11
5.21
5.49
6.24
7.60
9.45
11.51
13.39
14.59
14.62
13.02
9.68
5.01
0.03
-3.91
-5.62
-4.66
-1.47
2.79
6.88
9.95
11.90
13.15
14.23
15.43
16.62
17.42
17.42
16.38
14.24
11.23
7.60
3.65
-0.36
-4.28
-8.05
-11.69
-15.34
-19.13
-23.12
-27.25
-31.29
-34.84
-37.31
-38.11
-36.77
-33.16
-27.58
-20.74
-13.62
-7.11
-1.82
2.08
4.77
6.62
7.98
8.94
9.40
9.11
7.93
6.03
3.75
1.59
-0.16
-1.54
-2.91
-4.81
-7.64
-11.51
-16.03
-20.36
-23.38
-24.11
-22.14
-17.79
-11.98
-5.75
0.32
6.16
12.11
18.42
24.81
30.44
34.37
36.09
35.94
34.97
34.34
34.74
36.00
37.26
37.60
36.51
34.20
31.42
28.90
27.00
25.44
23.65
21.20
18.12
14.98
12.39
10.70
9.71
8.68
6.89
3.96
-0.07
-4.77
-9.70
-14.64
-19.38
-23.70
-27.13
-29.05
-28.98
-26.85
-23.14
-18.72
-14.52
-11.17
-8.85
-7.33
-6.20
-5.14
-4.00
-2.83
-1.70
-0.73
0.01
0.47
0.61
0.46
0.08
-0.39
-0.82
-1.23
-1.71
-2.45
-3.48
-4.63
-5.56
-5.95
-5.79
-5.37
-5.28
-6.10
-8.10
-11.17
-14.83
-18.42
-21.34
-23.07
-23.34
-22.06
-19.38
-15.73
-11.74
-8.19
-5.72
-4.63
-4.79
-5.67
-6.63
-7.17
-7.13
-6.69
-6.16
-5.84
-5.81
-5.95
-6.06
-6.05
-5.97
-5.95
-6.15
-6.51
-6.90
-7.09
-6.93
-6.38
-5.51
-4.46
-3.42
-2.62
-2.26
-2.45
-3.11
-3.96
-4.47
-4.18
-2.71
0.04
3.85
8.44
13.47
18.58
23.49
27.89
31.47
33.92
34.99
34.57
32.76
29.92
26.59
23.37
20.71
18.78
17.36
16.05
14.41
12.23
9.62
6.85
4.25
1.90
-0.25
-2.38
-4.63
-6.98
-9.32
-11.59
-13.79
-16.08
-18.62
-21.35
-23.89
-25.59
-25.85
-24.39
-21.40
-17.54
-13.62
-10.29
-7.96
-6.58
-6.02
-5.98
-6.30
-6.83
-7.41
-7.81
-7.70
-6.70
-4.64
-1.63
1.86
5.02
7.04
7.39
6.06
3.58
0.73
-1.90
-4.09
-6.12
-8.37
-11.09
-14.03
-16.70
-18.51
-19.05
-18.23
-16.32
-13.62
-10.54
-7.42
-4.41
-1.75
0.47
2.13
3.22
3.75
3.79
3.44
2.82
2.09
1.50
1.31
1.73
2.76
4.18
5.58
6.54
6.79
6.26
5.12
3.66
2.14
0.68
-0.69
-2.01
-3.39
-4.94
-6.75
-8.84
-11.13
-13.35
-15.07
-15.74
-14.91
-12.34
-8.28
-3.39
1.37
5.04
7.08
7.43
6.64
5.49
4.64
4.43
4.78
5.41
6.06
6.64
7.23
7.83
8.33
8.42
7.71
6.06
3.68
1.11
-0.97
-2.13
-2.45
-2.53
-3.27
-5.35
-8.95
-13.50
-17.92
-21.16
-22.56
-22.21
-20.78
-19.04
-17.54
-16.37
-15.24
-13.85
-12.08
-10.15
-8.48
-7.38
-6.97
-7.00
-7.02
-6.67
-5.72
-4.31
-2.75
-1.36
-0.38
0.17
0.33
0.13
-0.47
-1.72
-3.70
-6.42
-9.63
-12.89
-15.90
-18.45
-20.56
-22.24
-23.28
-23.26
-21.63
-18.14
-13.06
-7.13
-1.45
2.97
5.50
6.08
5.17
3.49
1.88
0.87
0.60
0.81
1.15
1.37
1.54
2.00
2.99
4.54
6.21
7.06
6.39
3.76
-0.53
-5.61
-10.60
-14.73
-17.99
-20.62
-22.94
-24.89
-25.92
-25.23
-22.26
-17.02
-10.36
-3.43
2.54
6.95
9.82
11.55
12.67
13.29
13.18
12.06
9.97
7.50
5.74
5.74
7.96
11.96
16.45
19.68
20.50
18.57
14.67
10.23
6.44
3.84
1.93
-0.22
-3.41
-7.60
-11.87
-14.82
-15.22
-12.61
-7.66
-1.57
4.07
8.34
11.06
12.68
14.00
15.35
16.34
16.17
14.23
10.86
7.42
5.68
6.88
10.90
16.25
20.41
21.54
19.11
14.17
8.90
5.12
3.60
3.59
3.32
1.03
-4.04
-11.37
-19.21
-25.44
-28.56
-28.41
-25.78
-22.29
-18.94
-15.79
-12.16
-7.08
-0.59
6.09
11.00
12.75
11.51
9.10
8.18
10.56
16.18
23.21
28.60
30.09
27.02
20.59
13.24
7.13
3.31
1.26
-0.52
-3.53
-8.38
-14.51
-20.45
-24.57
-25.94
-25.10
-23.23
-21.99
-21.99
-22.48
-21.91
-18.62
-12.44
-4.82
1.67
4.93
4.58
2.08
-0.04
0.14
3.01
7.33
10.83
11.96
10.39
7.18
4.14
2.49
2.54
3.32
3.43
1.85
-1.39
-5.14
-7.83
-8.30
-6.47
-3.89
-2.39
-3.66
-7.62
-12.52
-15.81
-15.27
-10.67
-3.81
2.35
5.42
4.91
2.46
0.83
2.19
6.94
13.56
19.24
21.88
20.99
17.92
15.20
14.70
16.84
20.14
22.39
21.77
18.04
12.55
7.26
3.81
2.36
1.43
-0.91
-6.52
-15.53
-26.52
-37.13
-44.94
-48.89
-49.48
-48.26
-46.68
-45.14
-42.77
-38.07
-30.16
-19.54
-8.05
1.48
7.01
7.92
5.29
1.33
-1.97
-3.67
-4.08
-4.11
-4.30
-4.09
-1.93
3.83
13.97
27.64
42.36
55.28
64.17
68.55
69.68
69.47
69.42
69.68
69.12
66.15
59.98
51.02
40.96
31.85
25.12
21.09
19.12
18.00
17.04
16.23
16.26
17.94
21.40
25.87
29.83
31.80
31.06
27.90
23.36
18.55
14.07
10.00
5.93
1.83
-1.82
-3.94
-3.28
0.79
7.90
16.52
24.45
29.76
31.49
29.96
26.45
22.22
17.92
13.18
7.16
-0.83
-10.27
-19.51
-26.30
-28.61
-25.82
-18.74
-9.45
-0.18
7.46
13.00
16.93
20.02
22.76
24.94
25.54
23.64
18.61
10.87
1.65
-7.67
-15.89
-22.68
-28.39
-33.51
-38.21
-42.01
-44.04
-43.62
-40.72
-36.23
-31.56
-28.32
-27.25
-28.25
-30.40
-32.42
-33.62
-33.92
-33.96
-34.42
-35.58
-37.03
-37.97
-37.73
-36.22
-34.10
-32.68
-33.13
-36.25
-41.94
-49.25
-56.83
-62.97
-66.28
-65.75
-61.11
-52.85
-42.21
-31.05
-21.41
-15.01
-12.79
-14.51
-19.14
-24.95
-30.42
-34.66
-37.47
-39.65
-42.30
-46.45
-52.47
-59.69
-66.31
-69.84
-67.88
-59.26
-44.89
-28.22
-14.21
-8.02
-12.95
-29.13
-53.57
-80.89
-105.48
-122.94
-131.26
-130.55
-122.48
-109.23
-92.83
-75.00
-57.18
-40.47
-25.86
-13.74
-4.01
3.93
10.99
17.70
24.06
29.46
33.23
35.18
36.04
37.31
40.59
46.91
56.11
66.57
76.11
82.61
85.07
84.00
80.93
77.96
76.56
77.26
79.48
82.01
83.63
83.66
82.17
79.96
78.02
77.12
77.30
78.02
78.31
77.30
74.59
70.29
65.15
60.13
56.24
54.18
54.04
55.24
56.57
56.69
54.62
50.17
44.28
38.53
34.58
33.36
34.50
36.49
37.34
35.45
30.44
23.34
16.29
11.60
10.92
14.61
21.58
29.84
37.01
41.29
41.75
38.63
33.14
26.84
21.19
17.17
15.02
14.34
14.32
13.83
11.76
7.23
-0.21
-10.38
-22.26
-34.22
-44.30
-50.84
-53.06
-51.20
-46.56
-40.89
-35.96
-32.80
-31.47
-31.08
-30.18
-27.51
-22.77
-16.84
-11.61
-8.90
-9.64
-13.24
-17.63
-20.39
-19.61
-14.79
-6.75
2.97
12.77
21.36
27.69
30.79
29.83
24.24
14.41
1.74
-11.46
-22.66
-30.27
-34.14
-36.03
-38.83
-45.50
-57.64
-74.62
-93.56
-110.31
-121.00
-123.45
-117.73
-105.94
-90.75
-74.33
-57.68
-40.60
-22.94
-5.07
11.84
26.46
38.14
47.32
55.15
62.69
70.09
76.63
80.92
82.40
81.55
80.08
80.25
83.43
89.75
97.61
104.49
107.90
106.27
99.58
89.17
77.09
65.27
54.60
44.94
35.11
24.30
12.54
0.91
-8.74
-15.36
-19.25
-22.41
-27.50
-36.55
-49.68
-65.03
-79.61
-90.62
-96.59
-98.07
-96.77
-94.87
-93.99
-94.72
-97.08
-100.62
-104.96
-109.69
-114.34
-118.38
-121.28
-122.67
-122.42
-120.52
-117.07
-111.91
-104.71
-94.68
-80.71
-61.79
-37.34
-7.90
24.72
57.74
88.19
113.89
134.23
150.14
163.47
176.07
188.93
201.90
214.06
224.37
232.27
238.07
242.43
246.13
249.39
251.78
252.33
249.93
243.45
231.80
213.89
188.46
154.38
111.15
59.48
1.71
-58.45
-116.69
-169.06
-212.92
-247.18
-272.15
-288.96
-298.85
-302.55
-299.98
-290.28
-272.36
-245.68
-211.23
-171.91
-132.22
-97.16
-70.58
-54.12
-46.81
-45.81
-47.86
-50.31
-51.72
-51.67
-50.17
-47.31
-43.27
-38.53
-33.93
-30.59
-29.34
-30.39
-33.31
-37.13
-41.02
-44.54
-47.87
-51.55
-56.05
-61.31
-66.57
-70.62
-72.26
-70.89
-66.90
-61.51
-56.43
-53.14
-52.30
-53.54
-55.60
-56.90
-56.23
-53.27
-48.67
-43.54
-38.73
-34.20
-29.04
-22.17
-13.48
-4.44
2.13
3.50
-1.53
-11.80
-24.32
-35.61
-43.00
-44.99
-40.98
-30.56
-13.56
9.30
35.59
60.99
80.24
89.02
85.62
71.97
52.63
32.92
16.82
5.44
-2.52
-9.50
-17.15
-25.22
-31.76
-34.30
-31.43
-23.57
-12.40
0.49
14.70
31.31
51.65
76.00
102.48
127.44
146.80
157.59
159.05
152.63
141.20
127.84
114.82
103.05
92.15
81.10
69.03
55.92
42.79
31.33
23.07
18.57
17.19
17.54
18.30
19.08
20.59
24.24
31.25
41.73
54.48
67.37
78.29
86.03
90.73
93.67
96.39
100.06
104.91
110.35
115.43
119.37
121.93
123.37
124.26
125.10
126.06
127.05
127.81
127.90
126.72
123.24
116.18
104.32
87.22
65.76
42.15
19.21
-0.56
-15.93
-27.17
-35.53
-42.33
-48.28
-53.31
-57.09
-59.71
-62.00
-65.28
-70.77
-78.95
-89.31
-100.45
-110.67
-118.40
-122.63
-123.00
-119.74
-113.63
-105.74
-97.28
-89.44
-83.00
-78.34
-75.38
-73.62
-72.48
-71.45
-70.22
-68.80
-67.45
-66.56
-66.54
-67.73
-70.31
-74.21
-79.02
-84.04
-88.27
-90.81
-91.10
-89.23
-85.87
-81.98
-78.38
-75.26
-72.06
-67.68
-60.93
-50.99
-37.75
-21.75
-4.21
13.37
29.43
42.67
52.26
57.94
59.98
58.97
55.75
51.37
47.20
44.90
46.07
51.54
61.05
73.03
85.26
95.74
103.39
108.19
110.71
111.54
110.78
108.15
103.38
96.43
87.50
76.87
64.66
51.04
36.36
21.48
7.59
-4.29
-13.60
-20.70
-26.43
-31.93
-38.05
-45.21
-53.36
-62.15
-71.03
-79.27
-86.04
-90.67
-92.92
-93.58
-94.36
-97.55
-104.80
-115.91
-128.24
-136.98
-136.66
-123.09
-94.76
-53.43
-3.33
50.17
101.84
147.60
184.61
211.47
227.99
235.08
234.60
228.63
218.96
206.45
191.04
172.26
149.98
125.14
99.68
76.21
57.16
44.02
37.03
35.26
36.89
39.59
40.97
38.95
32.25
20.72
5.48
-11.33
-27.25
-40.24
-49.30
-54.42
-56.36
-56.09
-54.47
-52.06
-49.20
-46.12
-42.98
-40.02
-37.50
-35.93
-35.96
-38.11
-42.51
-48.47
-54.45
-58.45
-58.67
-54.33
-46.00
-35.42
-24.83
-16.16
-10.40
-7.50
-6.47
-5.83
-3.90
0.74
8.87
20.30
33.46
45.76
54.14
56.10
50.85
40.12
27.62
17.97
14.83
19.22
29.06
39.85
46.50
45.38
35.46
18.27
-3.33
-26.47
-49.16
-70.42
-89.36
-104.94
-115.61
-120.05
-117.93
-110.24
-99.44
-88.68
-80.70
-76.82
-76.37
-77.18
-76.58
-72.85
-66.03
-57.86
-51.18
-48.06
-49.12
-53.25
-58.13
-61.97
-64.25
-65.98
-68.92
-74.38
-82.48
-92.14
-101.87
-110.51
-117.57
-123.37
-127.87
-130.54
-129.87
-123.79
-110.74
-90.08
-62.79
-31.18
1.61
32.41
58.59
78.42
91.19
97.00
96.45
90.56
80.25
67.15
53.32
41.31
33.79
32.50
37.64
47.57
59.55
70.81
79.75
86.41
92.13
98.53
106.37
114.72
121.64
124.87
123.32
117.72
110.17
103.40
99.29
98.26
99.30
100.68
100.80
98.67
93.97
86.80
77.36
66.07
53.33
40.06
27.23
15.55
5.20
-4.55
-14.79
-26.30
-38.75
-50.53
-59.20
-62.62
-59.91
-51.99
-41.18
-30.66
-22.87
-19.25
-19.74
-23.23
-28.50
-34.49
-40.89
-47.90
-55.71
-63.83
-70.78
-74.41
-72.68
-64.72
-51.45
-35.26
-19.43
-6.36
2.94
8.91
12.84
15.48
16.46
14.41
7.90
-3.53
-18.66
-34.85
-48.95
-58.36
-61.96
-60.78
-57.02
-53.39
-51.54
-51.31
-51.10
-48.46
-41.67
-30.42
-15.87
0.04
15.72
30.33
43.77
55.79
65.21
70.02
67.88
58.14
42.69
25.90
13.20
8.20
10.79
16.76
19.63
13.76
-2.95
-28.14
-56.43
-82.03
-101.22
-113.63
-120.93
-125.39
-128.19
-129.11
-127.56
-123.31
-117.13
-110.10
-102.75
-94.49
-83.98
-70.01
-52.30
-31.90
-10.83
8.96
25.86
39.43
49.99
58.32
65.47
72.19
78.93
85.55
91.63
96.67
100.44
103.10
104.99
106.41
107.28
106.93
104.73
100.35
94.01
86.58
78.88
71.33
63.69
55.20
45.12
33.39
20.74
8.50
-2.01
-10.03
-15.69
-19.67
-22.96
-26.11
-29.15
-31.76
-33.56
-34.64
-35.49
-36.83
-39.08
-42.09
-45.16
-47.41
-48.27
-47.71
-46.16
-44.32
-42.72
-41.56
-40.76
-40.02
-39.13
-38.03
-36.68
-35.08
-33.09
-30.56
-27.37
-23.48
-19.10
-14.61
-10.62
-7.73
-6.44
-6.78
-8.29
-10.12
-11.38
-11.69
-11.25
-10.91
-11.63
-14.13
-18.53
-24.52
-31.62
-39.50
-48.09
-57.45
-67.39
-77.47
-86.84
-94.33
-98.70
-98.53
-92.51
-79.70
-60.13
-35.21
-7.68
18.83
40.89
56.36
64.88
67.84
67.44
65.80
64.42
64.00
64.93
67.42
71.48
76.73
82.22
86.80
89.79
91.40
92.74
95.12
99.19
104.38
109.27
112.21
112.17
108.94
102.64
93.26
80.49
64.18
45.04
24.85
5.87
-10.21
-23.35
-35.15
-48.02
-63.65
-82.01
-100.96
-117.10
-127.23
-129.53
-124.20
-113.01
-98.31
-81.99
-64.84
-46.74
-27.14
-5.78
17.12
40.84
64.32
86.26
104.94
118.04
122.96
117.50
100.90
74.76
43.01
11.11
-15.43
-32.61
-38.82
-34.89
-23.67
-8.99
5.07
15.02
18.51
14.80
4.79
-9.25
-24.44
-38.04
-48.07
-53.32
-53.16
-47.30
-35.62
-18.48
3.10
27.40
52.28
75.85
96.93
115.15
130.80
144.22
155.35
163.51
167.38
165.34
155.92
138.36
113.26
82.89
51.08
22.40
1.00
-10.74
-12.96
-8.10
-0.02
7.45
11.54
11.04
6.10
-2.26
-12.57
-23.13
-32.23
-38.34
-40.48
-38.57
-33.55
-27.04
-20.99
-16.89
-15.48
-16.56
-19.25
-22.47
-25.28
-27.16
-28.17
-28.59
-28.81
-28.97
-28.89
-28.35
-27.19
-25.63
-24.13
-23.19
-23.22
-24.32
-26.39
-29.29
-32.86
-36.96
-41.38
-45.74
-49.57
-52.41
-53.96
-54.21
-53.41
-51.93
-50.07
-47.96
-45.50
-42.51
-38.81
-34.39
-29.38
-24.12
-19.05
-14.63
-11.29
-9.22
-8.35
-8.34
-8.66
-8.88
-8.70
-8.07
-7.13
-6.12
-5.33
-5.04
-5.36
-6.31
-7.61
-8.84
-9.60
-9.65
-9.18
-8.59
-8.40
-8.82
-9.62
-10.20
-9.72
-7.67
-4.07
0.47
4.96
8.46
10.40
10.73
9.85
8.32
6.54
4.66
2.64
0.49
-1.49
-2.80
-2.89
-1.53
0.98
3.91
6.29
7.37
6.87
5.05
2.56
0.04
-2.25
-4.35
-6.70
-9.55
-12.94
-16.59
-19.84
-22.25
-23.46
-23.43
-22.27
-20.05
-16.78
-12.52
-7.53
-2.35
2.39
6.03
8.29
9.23
9.25
8.89
8.56
8.44
8.47
8.42
8.02
7.15
5.90
4.49
3.22
2.21
1.32
0.14
-1.92
-5.19
-9.61
-14.63
-19.29
-22.90
-25.08
-26.04
-26.12
-25.49
-23.97
-21.08
-16.61
-10.89
-4.80
0.42
3.97
5.59
5.81
5.45
5.24
5.50
6.00
6.32
6.08
5.24
4.08
3.08
2.53
2.44
2.42
1.88
0.26
-2.55
-6.23
-10.19
-13.81
-16.88
-19.54
-22.15
-24.87
-27.45
-29.13
-29.06
-26.78
-22.36
-16.57
-10.57
-5.39
-1.77
0.18
0.84
0.65
0.13
-0.59
-1.50
-2.56
-3.57
-4.01
-3.33
-1.34
1.64
4.66
6.77
7.29
6.28
4.43
2.49
0.97
-0.39
-2.18
-4.87
-8.21
-11.22
-12.36
-10.40
-4.86
3.80
14.29
25.01
34.60
42.13
47.34
50.51
52.08
52.63
52.42
51.47
49.50
46.11
40.99
34.07
25.73
16.79
8.24
1.25
-3.56
-5.86
-6.01
-4.77
-2.94
-1.43
-0.85
-1.64
-3.93
-7.46
-11.60
-15.48
-18.36
-19.93
-20.45
-20.55
-20.78
-21.18
-21.20
-19.86
-16.47
-10.98
-4.15
2.84
8.98
13.78
17.44
20.50
23.47
26.54
29.56
32.25
34.37
35.96
37.22
38.21
38.82
38.63
37.26
34.61
31.11
27.57
24.88
23.59
23.71
24.79
26.24
27.55
28.50
28.94
28.83
28.27
27.54
27.28
28.24
31.05
35.75
41.66
47.62
52.48
55.58
56.99
57.33
57.26
56.83
55.47
51.87
44.61
32.67
15.81
-5.28
-29.04
-53.34
-75.83
-94.40
-107.67
-115.38
-118.46
-118.78
-118.57
-119.62
-122.73
-127.19
-130.90
-130.84
-123.94
-108.29
-83.91
-53.14
-20.11
10.58
35.20
51.97
61.18
64.58
64.45
62.63
60.37
58.14
55.94
53.79
52.00
51.52
53.88
60.47
71.43
84.83
96.81
103.07
100.80
90.04
73.52
55.25
38.63
25.54
16.55
11.81
11.81
17.05
27.20
40.55
54.15
64.99
71.15
72.28
68.96
61.73
50.44
34.62
14.62
-7.74
-29.26
-46.52
-57.50
-62.51
-64.15
-66.16
-71.95
-83.51
-101.23
-124.40
-151.47
-180.11
-206.88
-227.25
-236.65
-232.22
-214.38
-187.18
-156.83
-129.22
-107.61
-91.80
-79.21
-67.04
-54.07
-41.05
-29.69
-21.02
-14.34
-7.62
1.27
13.07
26.62
39.39
48.68
52.94
52.20
47.98
42.36
37.26
33.83
32.38
32.44
33.08
33.30
32.57
31.25
30.55
32.19
37.46
46.55
58.30
70.68
81.69
90.15
96.01
99.96
102.81
104.85
105.70
104.63
101.03
94.88
86.72
77.39
67.66
57.85
47.94
37.69
27.19
17.02
8.32
2.23
-0.55
-0.26
1.91
4.39
5.82
5.66
4.24
2.49
1.28
1.09
1.75
2.67
3.19
2.95
1.96
0.60
-0.67
-1.47
-1.74
-1.73
-1.86
-2.47
-3.70
-5.47
-7.44
-9.33
-10.97
-12.36
-13.59
-14.73
-15.73
-16.53
-17.13
-17.72
-18.57
-19.88
-21.59
-23.22
-24.06
-23.31
-20.63
-16.29
-11.16
-6.37
-2.80
-0.75
0.13
0.55
1.19
2.33
3.81
5.27
6.37
7.06
7.43
7.59
7.57
7.19
6.32
4.90
3.13
1.25
-0.54
-2.20
-3.80
-5.44
-7.13
-8.76
-10.14
-11.13
-11.62
-11.66
-11.40
-11.12
-11.25
-12.17
-14.06
-16.63
-19.11
-20.43
-19.67
-16.37
-10.87
-4.01
3.09
9.63
15.26
20.10
24.49
28.54
32.10
34.73
36.10
36.27
35.78
35.51
36.14
37.87
40.12
41.80
41.81
39.35
34.25
26.77
17.31
6.24
-6.09
-19.13
-31.93
-43.16
-51.50
-56.24
-57.67
-57.20
-56.87
-58.59
-63.48
-71.31
-80.68
-89.56
-95.86
-98.22
-96.16
-90.13
-81.19
-70.76
-60.31
-51.12
-44.10
-39.59
-37.25
-36.24
-35.36
-33.44
-29.68
-23.62
-15.29
-5.06
6.43
18.18
29.09
38.25
45.26
50.48
54.86
59.47
64.82
70.62
75.78
79.09
79.63
76.85
70.34
59.34
42.96
20.76
-6.15
-34.76
-60.75
-79.93
-90.04
-91.67
-87.90
-82.89
-80.01
-80.68
-84.11
-87.94
-89.43
-86.39
-77.83
-64.22
-47.27
-29.44
-13.21
-0.23
9.18
15.90
21.46
27.41
34.82
44.23
55.76
69.19
83.73
97.76
108.82
114.07
111.21
99.35
79.44
54.08
26.88
1.47
-19.19
-33.41
-41.06
-43.53
-43.27
-42.94
-44.41
-47.89
-51.82
-53.46
-50.23
-41.07
-27.29
-12.43
-0.98
3.34
-1.03
-12.84
-28.76
-44.71
-57.34
-64.81
-66.61
-62.90
-53.90
-39.72
-20.84
1.45
24.89
46.71
64.51
77.00
84.27
87.41
87.74
86.06
82.45
76.71
69.11
60.82
53.74
49.54
48.74
50.08
51.00
48.77
41.67
29.71
14.38
-2.21
-18.25
-32.69
-45.14
-55.58
-64.12
-70.99
-76.66
-81.69
-86.37
-90.47
-93.04
-92.79
-88.63
-80.17
-67.82
-52.68
-35.87
-18.14
0.26
19.39
38.99
58.20
75.26
87.94
94.30
93.46
86.15
74.58
61.85
50.74
42.77
37.83
34.37
30.41
24.41
15.87
5.21
-6.73
-19.06
-30.89
-40.86
-47.10
-47.59
-41.16
-28.45
-12.20
3.67
15.43
21.10
20.88
16.70
11.06
5.73
1.42
-2.18
-5.61
-9.01
-11.84
-13.17
-12.13
-8.41
-2.40
4.81
12.05
18.33
23.28
27.09
30.10
32.58
34.49
35.74
36.55
37.73
40.48
45.78
53.78
63.37
72.48
78.87
81.00
78.70
73.03
65.68
58.24
51.49
45.40
39.30
32.25
23.52
12.81
0.42
-12.69
-25.05
-35.03
-41.35
-43.44
-41.64
-37.00
-30.82
-24.36
-18.54
-14.00
-11.11
-10.11
-10.99
-13.44
-16.73
-19.81
-21.47
-20.58
-16.40
-8.76
1.80
14.09
26.47
37.13
44.35
46.85
44.00
35.91
23.37
7.54
-10.40
-29.54
-49.26
-69.07
-88.30
-105.86
-120.49
-131.07
-137.07
-138.76
-136.96
-132.67
-126.61
-119.16
-110.52
-101.04
-91.30
-82.03
-73.73
-66.51
-60.05
-53.92
-47.87
-42.06
-36.97
-33.05
-30.52
-29.20
-28.69
-28.57
-28.64
-29.04
-30.02
-31.84
-34.53
-37.87
-41.52
-45.02
-47.75
-48.94
-47.58
-42.75
-33.98
-21.63
-6.91
8.42
22.72
35.01
45.18
53.81
61.55
68.64
74.74
79.09
81.01
80.32
77.36
72.93
67.86
62.86
58.39
54.76
52.13
50.45
49.41
48.30
46.20
42.25
35.99
27.51
17.37
6.36
-4.94
-16.24
-27.48
-38.52
-48.80
-57.36
-62.99
-64.71
-62.19
-55.93
-47.15
-37.43
-28.12
-20.02
-13.27
-7.54
-2.44
2.23
6.25
9.19
10.72
10.82
9.91
8.57
7.26
6.12
4.92
3.33
1.25
-0.98
-2.65
-2.88
-1.00
3.24
9.50
16.94
24.47
30.99
35.69
38.29
38.94
38.13
36.33
33.85
30.91
27.76
24.80
22.70
22.12
23.37
26.29
30.29
34.73
39.24
43.86
48.85
54.31
59.87
64.66
67.66
68.10
65.88
61.50
55.85
49.77
43.89
38.53
33.79
29.78
26.55
24.06
22.19
20.69
19.40
18.26
17.39
16.91
16.84
16.94
16.77
15.83
13.69
10.20
5.54
0.18
-5.18
-9.76
-12.92
-14.33
-14.04
-12.43
-10.07
-7.45
-4.82
-2.26
0.27
2.68
4.75
6.18
6.85
6.87
6.61
6.55
7.05
8.21
9.88
11.72
13.41
14.65
15.27
15.19
14.39
12.95
10.98
8.55
5.61
2.05
-2.24
-7.17
-12.35
-17.10
-20.63
-22.33
-21.96
-19.70
-16.05
-11.68
-7.22
-3.10
0.44
3.30
5.52
7.05
7.86
7.94
7.30
6.06
4.37
2.31
-0.08
-2.80
-5.80
-8.97
-12.11
-15.06
-17.63
-19.82
-21.72
-23.51
-25.41
-27.68
-30.56
-34.06
-37.92
-41.54
-44.05
-44.76
-43.15
-39.28
-33.55
-26.52
-18.79
-10.88
-3.36
3.15
8.10
11.21
12.81
13.52
14.08
14.85
15.65
15.98
15.17
13.12
10.21
7.30
5.44
5.09
5.98
7.16
7.56
6.64
4.64
2.39
0.62
-0.63
-1.99
-4.71
-9.32
-15.49
-21.80
-26.45
-28.39
-27.79
-26.00
-24.52
-24.03
-23.94
-22.76
-19.19
-12.99
-5.43
1.20
4.78
4.12
-0.24
-6.62
-13.18
-18.73
-23.40
-28.20
-34.30
-42.24
-51.67
-61.72
-71.40
-80.02
-86.97
-91.51
-92.80
-89.93
-82.60
-71.24
-56.95
-41.10
-24.70
-8.11
8.88
26.53
44.80
63.07
80.36
95.68
108.23
117.56
123.50
126.08
125.66
122.90
118.74
114.24
110.28
107.34
105.36
103.88
102.20
99.75
96.38
92.34
88.13
84.15
80.36
76.38
71.56
65.34
57.46
48.02
37.38
26.01
14.53
3.69
-5.69
-12.85
-17.42
-19.67
-20.43
-20.83
-21.87
-24.04
-27.15
-30.56
-33.47
-35.30
-35.86
-35.26
-33.75
-31.52
-28.68
-25.44
-22.06
-18.91
-16.39
-14.68
-13.83
-13.74
-14.37
-15.83
-18.24
-21.68
-25.90
-30.38
-34.46
-37.50
-39.06
-38.98
-37.29
-34.22
-30.23
-25.84
-21.61
-17.93
-14.81
-11.99
-9.06
-5.81
-2.39
0.62
2.57
3.03
2.22
0.82
-0.27
-0.42
0.20
0.72
-0.11
-3.09
-8.13
-14.08
-19.26
-22.17
-22.25
-19.89
-16.14
-12.11
-8.42
-5.02
-1.51
2.59
7.41
12.73
18.12
23.10
27.38
31.00
34.28
37.71
41.59
45.75
49.55
51.94
52.15
50.08
46.40
42.38
39.17
37.31
36.50
35.75
33.87
29.75
22.44
11.33
-3.58
-21.22
-38.86
-52.39
-57.25
-50.03
-30.04
-0.01
34.42
66.22
89.07
99.15
95.89
81.94
62.00
41.21
23.67
11.29
3.70
-1.14
-5.75
-12.02
-20.65
-31.28
-43.02
-55.04
-66.58
-76.88
-85.02
-89.80
-90.24
-85.90
-77.11
-65.04
-51.11
-36.61
-22.36
-8.65
4.62
17.62
30.56
43.46
56.11
68.00
78.18
85.44
88.60
87.17
81.72
73.92
66.07
60.13
57.05
56.47
57.06
57.21
55.81
52.64
48.16
43.30
39.00
35.92
34.42
34.63
36.44
39.51
43.15
46.26
47.47
45.40
39.30
29.24
16.27
2.13
-11.39
-22.90
-31.65
-37.48
-40.55
-41.38
-40.90
-40.43
-41.51
-45.39
-52.37
-61.80
-72.16
-81.88
-89.96
-96.18
-100.97
-104.83
-107.84
-109.63
-109.76
-107.94
-104.49
-100.17
-95.95
-92.66
-90.68
-90.08
-90.48
-91.40
-92.28
-92.69
-92.46
-91.67
-90.65
-89.83
-89.41
-89.35
-89.26
-88.48
-86.47
-82.94
-77.95
-71.95
-65.42
-58.80
-52.34
-46.17
-40.48
-35.50
-31.61
-29.06
-27.81
-27.52
-27.47
-27.04
-25.83
-23.74
-20.95
-17.72
-14.19
-10.54
-7.01
-4.04
-2.19
-2.07
-3.96
-7.66
-12.52
-17.51
-21.69
-24.43
-25.44
-24.63
-21.86
-16.91
-9.78
-0.85
8.94
18.29
25.85
31.02
33.93
35.42
36.52
37.58
38.17
37.24
33.92
28.20
21.18
14.70
10.45
9.14
10.20
11.84
12.30
10.29
5.79
-0.12
-6.16
-11.26
-15.46
-19.61
-24.77
-31.30
-38.41
-44.38
-47.57
-47.43
-45.08
-42.70
-42.69
-45.83
-50.93
-55.17
-55.20
-48.96
-36.40
-19.43
-0.81
17.16
33.42
48.16
62.09
75.74
88.92
100.53
109.58
115.34
118.17
119.40
120.49
122.55
125.52
128.28
129.11
126.69
120.64
111.72
101.42
91.09
81.14
71.27
60.49
48.50
36.01
24.86
17.48
15.45
18.77
25.65
33.40
39.60
43.15
44.45
44.95
46.14
48.86
52.59
56.41
58.95
59.42
57.60
53.61
47.63
39.58
29.10
16.14
1.38
-13.59
-26.68
-35.97
-40.63
-41.31
-39.75
-38.50
-39.42
-43.24
-49.41
-56.26
-62.34
-66.84
-69.97
-72.32
-74.19
-75.00
-73.52
-68.51
-59.57
-47.58
-34.82
-23.58
-15.61
-11.04
-8.55
-6.31
-2.88
1.78
6.26
8.58
7.43
3.21
-1.95
-5.11
-4.12
1.05
8.54
15.03
18.05
16.91
12.91
8.59
5.72
4.56
3.71
1.42
-3.21
-9.43
-15.28
-18.69
-18.44
-14.71
-9.24
-3.90
-0.29
1.31
1.85
2.65
4.81
8.09
11.07
11.85
9.33
4.04
-1.80
-5.30
-4.42
0.80
8.47
15.35
19.04
18.78
15.60
11.70
8.71
7.04
5.66
3.37
-0.37
-4.89
-8.73
-10.77
-10.83
-9.92
-9.87
-11.79
-15.74
-20.30
-23.24
-22.88
-18.75
-12.08
-5.05
0.20
2.65
2.72
1.85
1.69
3.16
5.91
8.94
10.70
10.43
8.23
4.92
1.76
-0.63
-2.37
-4.32
-7.16
-10.99
-15.00
-18.00
-19.10
-18.31
-16.57
-15.64
-16.79
-20.42
-25.51
-30.01
-31.87
-29.91
-24.56
-17.78
-12.14
-9.44
-9.79
-11.50
-11.98
-9.34
-3.71
2.99
7.49
7.46
2.53
-5.61
-13.81
-19.50
-21.60
-20.70
-17.96
-14.12
-8.78
-0.95
9.99
23.40
37.15
48.14
53.80
52.93
46.48
37.10
27.99
21.92
20.46
23.66
30.24
37.94
43.91
45.56
41.34
31.49
17.83
3.55
-8.51
-16.30
-19.33
-18.48
-14.99
-10.23
-5.19
-0.56
3.36
6.62
9.66
13.17
17.56
22.77
27.98
31.80
33.23
31.90
28.50
24.42
20.90
18.59
17.02
14.98
11.23
5.39
-1.62
-7.87
-11.34
-10.84
-6.95
-1.31
3.79
7.20
9.24
11.33
15.18
21.18
28.09
33.68
36.22
35.68
33.95
33.82
37.28
44.49
53.48
60.94
64.28
62.51
56.82
49.80
43.73
39.68
36.82
33.36
27.74
19.70
10.50
2.18
-3.60
-6.45
-7.55
-8.57
-11.13
-15.40
-20.25
-24.08
-25.26
-23.50
-19.61
-15.14
-11.41
-8.90
-7.17
-5.36
-2.91
0.11
3.01
4.51
4.01
1.48
-2.28
-6.03
-9.01
-11.20
-13.47
-16.92
-22.21
-29.05
-36.33
-42.69
-47.34
-50.55
-53.61
-57.86
-64.21
-71.97
-79.25
-83.82
-83.83
-79.21
-71.50
-63.21
-56.50
-52.08
-49.02
-45.38
-39.66
-31.75
-23.15
-16.43
-13.40
-14.30
-17.46
-19.98
-19.39
-14.67
-6.69
2.59
11.18
18.00
22.95
26.53
28.96
29.83
27.91
22.08
11.62
-2.92
-19.86
-36.91
-51.65
-62.50
-68.86
-71.10
-69.98
-66.13
-59.91
-51.42
-40.98
-29.34
-17.71
-7.64
-0.16
4.40
6.60
7.66
8.63
10.14
12.05
13.82
14.91
15.14
14.78
14.35
14.22
14.45
14.40
13.39
10.61
5.88
-0.39
-7.31
-13.76
-18.97
-22.48
-24.19
-24.03
-21.87
-17.52
-10.99
-2.82
5.99
14.16
20.44
24.30
25.87
26.02
25.90
26.32
27.52
29.09
30.32
30.70
30.11
28.92
27.55
26.35
25.28
23.91
21.90
18.95
15.27
11.33
7.54
4.22
1.12
-2.33
-6.77
-12.41
-18.77
-24.69
-28.68
-29.60
-27.08
-21.73
-15.18
-9.14
-5.06
-3.52
-4.09
-5.90
-8.14
-10.81
-14.86
-21.68
-32.06
-45.39
-59.55
-71.60
-79.37
-82.79
-83.75
-85.74
-91.67
-102.59
-117.40
-133.36
-148.13
-160.98
-172.92
-185.37
-198.62
-210.76
-217.90
-216.15
-203.51
-180.56
-150.77
-118.11
-85.28
-52.44
-17.53
21.33
63.82
105.85
140.79
162.35
168.20
161.63
150.59
144.17
148.14
162.05
180.28
194.87
200.34
196.19
186.32
176.33
169.68
165.84
161.23
152.17
137.66
120.34
105.23
96.58
95.35
98.79
101.38
97.98
86.24
67.59
46.47
27.74
14.72
7.90
5.67
5.62
6.28
7.62
10.60
16.28
24.64
34.09
42.31
46.91
46.83
42.71
36.40
30.08
25.12
21.52
18.27
14.12
8.47
1.81
-4.56
-9.30
-11.75
-12.16
-11.78
-11.80
-12.94
-15.11
-17.63
-19.88
-21.69
-23.30
-24.93
-26.37
-26.88
-25.49
-21.67
-15.55
-8.07
-0.58
5.81
10.59
13.91
16.36
18.35
20.01
21.04
21.14
20.27
18.85
17.57
17.10
17.58
18.62
19.36
19.06
17.30
14.41
11.07
8.09
5.94
4.57
3.43
1.82
-0.83
-4.63
-9.26
-14.00
-17.98
-20.40
-20.74
-18.97
-15.50
-11.14
-6.86
-3.33
-0.77
1.16
2.94
4.93
7.05
8.74
9.36
8.59
6.74
4.53
2.84
2.09
2.15
2.43
2.22
1.11
-0.74
-2.97
-5.07
-6.81
-8.15
-9.28
-10.36
-11.67
-13.59
-16.79
-22.01
-29.88
-40.34
-52.42
-64.31
-73.72
-78.63
-77.86
-71.35
-60.12
-45.69
-29.64
-13.15
2.93
18.08
31.64
43.00
51.65
57.60
61.62
65.24
70.34
78.59
90.46
104.82
118.66
127.87
128.41
117.88
96.64
68.18
38.00
11.85
-6.36
-15.64
-17.75
-15.79
-12.57
-9.67
-7.44
-5.79
-4.82
-4.90
-6.03
-7.47
-7.77
-5.87
-2.07
1.60
2.32
-1.85
-10.62
-21.29
-30.19
-34.59
-34.13
-30.97
-28.37
-29.04
-33.89
-42.00
-51.56
-60.94
-69.26
-76.35
-82.12
-86.28
-88.24
-87.48
-83.94
-78.20
-71.32
-64.43
-58.25
-52.95
-48.09
-43.04
-37.20
-30.34
-22.49
-13.86
-4.52
5.53
16.29
27.48
38.31
47.64
54.31
57.66
57.93
56.18
54.00
52.80
53.41
55.77
59.13
62.30
64.09
63.62
60.61
55.41
48.97
42.64
37.62
34.76
34.13
35.21
37.09
38.88
39.97
39.95
38.55
35.40
30.12
22.51
12.97
2.50
-7.50
-15.71
-21.51
-25.22
-27.94
-31.00
-35.36
-41.17
-47.73
-53.79
-57.95
-59.04
-56.41
-49.94
-40.21
-28.36
-16.04
-5.22
2.19
4.76
1.97
-5.48
-15.63
-25.74
-33.00
-35.57
-33.24
-27.40
-20.32
-14.22
-10.27
-8.52
-8.17
-8.35
-8.60
-8.89
-9.50
-10.49
-11.68
-12.69
-13.11
-12.60
-10.91
-7.81
-3.35
2.00
7.15
10.64
11.22
8.38
2.70
-4.30
-10.82
-15.49
-17.79
-18.07
-17.14
-15.76
-14.34
-12.95
-11.48
-9.87
-8.23
-6.80
-5.87
-5.73
-6.46
-7.84
-9.22
-9.72
-8.43
-4.99
0.18
6.01
11.07
14.31
15.43
14.85
13.38
11.74
10.29
9.24
8.71
9.06
10.75
14.11
19.21
25.78
33.28
41.10
48.66
55.50
61.27
65.80
69.02
70.88
71.13
69.17
64.07
55.01
41.75
25.06
6.79
-10.61
-24.85
-34.47
-39.30
-40.27
-38.90
-36.63
-34.44
-32.68
-31.29
-30.17
-29.43
-29.47
-30.72
-33.39
-37.38
-42.27
-47.47
-52.32
-56.01
-57.48
-55.56
-49.13
-37.72
-21.80
-2.86
16.87
35.02
49.54
59.15
63.37
62.61
57.95
51.03
43.76
37.82
34.35
33.50
34.61
36.39
37.51
36.98
34.45
30.28
25.22
20.27
16.31
13.94
13.26
13.92
15.17
16.23
16.51
15.86
14.65
13.44
12.76
12.76
13.12
13.18
12.28
9.98
6.21
1.18
-4.80
-11.28
-17.71
-23.39
-27.65
-30.11
-31.00
-31.21
-31.88
-33.88
-37.25
-41.19
-44.55
-46.55
-47.21
-47.25
-47.55
-48.47
-49.68
-50.54
-50.71
-50.67
-51.47
-54.13
-58.92
-65.05
-71.01
-75.34
-77.32
-77.29
-76.38
-75.93
-77.02
-80.02
-84.44
-88.90
-91.33
-89.29
-80.63
-64.20
-40.54
-12.17
16.85
41.83
58.77
65.49
62.18
51.20
36.15
20.69
7.56
-1.87
-7.46
-9.79
-9.55
-7.30
-3.57
1.02
5.69
9.64
12.42
14.09
15.19
16.34
17.87
19.54
20.76
20.88
19.60
17.18
14.32
11.93
10.84
11.53
14.03
18.02
22.89
27.89
32.37
35.87
38.23
39.46
39.69
39.03
37.49
35.12
32.08
28.74
25.54
22.84
20.71
18.94
17.10
14.93
12.50
10.21
8.67
8.17
8.52
9.05
8.83
7.22
4.20
0.47
-2.78
-4.34
-3.52
-0.35
4.33
9.32
13.47
16.12
17.33
17.70
18.20
19.87
23.75
30.79
41.64
56.40
74.16
93.03
110.58
124.76
134.64
140.66
143.94
145.03
143.09
135.90
121.09
97.89
68.32
36.85
8.85
-11.67
-23.59
-28.77
-30.75
-32.78
-36.46
-41.32
-45.77
-48.49
-49.37
-49.52
-50.46
-53.07
-56.97
-60.68
-62.54
-61.68
-58.43
-54.35
-51.36
-50.91
-53.56
-58.82
-65.49
-72.13
-77.41
-80.16
-79.28
-73.57
-61.91
-43.85
-20.32
5.96
30.79
49.69
59.29
58.61
49.25
34.74
19.07
5.41
-4.64
-10.96
-14.22
-15.36
-15.18
-14.36
-13.51
-13.24
-13.95
-15.72
-18.29
-21.02
-23.22
-24.32
-24.06
-22.63
-20.55
-18.50
-17.13
-17.07
-18.68
-22.25
-27.74
-34.84
-42.88
-50.82
-57.57
-62.15
-63.85
-62.16
-56.72
-47.36
-34.23
-18.08
-0.32
17.04
31.96
42.85
49.06
50.93
49.52
46.25
42.38
38.83
36.03
33.94
32.19
30.31
27.89
24.73
20.97
16.78
12.35
7.67
2.68
-2.66
-8.17
-13.51
-18.37
-22.64
-26.52
-30.37
-34.38
-38.34
-41.60
-43.29
-42.74
-39.73
-34.60
-28.07
-20.89
-13.55
-6.19
1.21
8.67
15.88
22.31
27.29
30.28
31.17
30.30
28.27
25.78
23.38
21.38
19.96
19.20
19.02
19.01
18.28
15.60
9.87
0.79
-10.83
-23.16
-34.07
-41.91
-46.10
-47.07
-45.87
-43.48
-40.47
-36.98
-32.99
-28.62
-24.21
-20.10
-16.50
-13.27
-9.93
-6.01
-1.26
4.21
9.76
14.56
17.82
19.15
18.65
16.88
14.48
12.04
9.79
7.59
5.11
2.01
-1.90
-6.53
-11.59
-16.67
-21.39
-25.47
-28.73
-31.03
-32.16
-31.87
-29.96
-26.49
-21.87
-16.87
-12.34
-8.91
-6.77
-5.61
-4.83
-3.83
-2.18
0.14
2.92
5.72
8.04
9.48
9.78
8.80
6.59
3.31
-0.65
-4.73
-8.16
-10.12
-10.03
-7.82
-3.99
0.61
5.26
9.73
14.42
19.91
26.49
33.67
40.33
45.21
47.57
47.63
46.31
44.74
43.56
42.66
41.44
39.27
35.99
32.06
28.20
25.01
22.60
20.61
18.47
15.67
12.15
8.23
4.38
0.96
-2.06
-5.07
-8.62
-13.11
-18.53
-24.39
-29.87
-34.10
-36.41
-36.51
-34.51
-30.86
-26.21
-21.29
-16.73
-13.01
-10.39
-8.92
-8.49
-8.92
-9.96
-11.30
-12.61
-13.53
-13.89
-13.69
-13.15
-12.56
-12.11
-11.75
-11.31
-10.59
-9.58
-8.51
-7.71
-7.46
-7.78
-8.48
-9.26
-9.92
-10.39
-10.61
-10.48
-9.71
-7.96
-5.06
-1.20
3.05
6.93
9.82
11.55
12.37
12.74
12.98
13.10
12.84
11.97
10.47
8.65
6.94
5.64
4.70
3.72
2.23
-0.00
-2.82
-5.79
-8.42
-10.50
-12.17
-13.84
-15.83
-18.13
-20.27
-21.52
-21.14
-18.84
-14.85
-9.93
-5.05
-0.98
1.82
3.34
3.83
3.61
3.03
2.29
1.58
1.06
0.87
1.11
1.68
2.38
2.84
2.73
1.91
0.46
-1.32
-3.12
-4.75
-6.18
-7.60
-9.15
-10.83
-12.36
-13.23
-12.99
-11.34
-8.28
-4.17
0.47
5.04
9.01
11.99
13.82
14.48
14.19
13.30
12.23
11.39
11.01
11.11
11.48
11.75
11.57
10.75
9.26
7.35
5.33
3.52
2.08
0.90
-0.37
-2.17
-4.81
-8.32
-12.31
-16.09
-18.92
-20.20
-19.70
-17.61
-14.38
-10.63
-6.88
-3.49
-0.53
2.13
4.73
7.49
10.46
13.48
16.36
18.92
21.17
23.24
25.27
27.26
29.01
30.19
30.50
29.87
28.45
26.58
24.57
22.54
20.38
17.83
14.64
10.77
6.47
2.10
-1.92
-5.19
-7.47
-8.57
-8.35
-6.74
-3.88
-0.09
4.11
8.17
11.69
14.48
16.56
18.01
18.92
19.37
19.52
19.65
20.14
21.30
23.19
25.51
27.71
29.12
29.26
28.02
25.69
22.81
20.03
17.72
15.96
14.41
12.50
9.65
5.47
-0.02
-6.41
-12.98
-18.89
-23.39
-25.91
-26.26
-24.62
-21.55
-17.81
-14.19
-11.32
-9.51
-8.79
-8.99
-9.88
-11.23
-12.87
-14.59
-16.13
-17.26
-17.82
-17.89
-17.72
-17.64
-17.86
-18.41
-19.15
-19.85
-20.37
-20.66
-20.73
-20.67
-20.54
-20.45
-20.59
-21.19
-22.36
-23.91
-25.27
-25.59
-24.02
-20.01
-13.62
-5.45
3.49
12.12
19.57
25.39
29.49
32.09
33.60
34.43
34.96
35.41
35.86
36.26
36.49
36.42
35.93
34.93
33.31
31.04
28.16
24.86
21.40
18.10
15.11
12.37
9.61
6.48
2.80
-1.36
-5.60
-9.39
-12.23
-13.88
-14.30
-13.74
-12.49
-10.90
-9.28
-7.83
-6.70
-5.94
-5.55
-5.51
-5.77
-6.28
-6.99
-7.80
-8.63
-9.44
-10.23
-11.15
-12.34
-13.90
-15.79
-17.81
-19.69
-21.23
-22.36
-23.17
-23.82
-24.41
-24.94
-25.32
-25.34
-24.77
-23.31
-20.76
-17.05
-12.35
-7.03
-1.63
3.35
7.61
11.09
13.84
15.94
17.39
18.11
18.15
17.70
17.13
16.79
16.86
17.23
17.55
17.44
16.60
14.99
12.72
10.03
7.15
4.29
1.60
-0.91
-3.36
-5.99
-9.09
-12.75
-16.80
-20.73
-23.81
-25.37
-25.02
-22.81
-19.20
-14.87
-10.47
-6.47
-3.07
-0.30
1.92
3.58
4.61
4.97
4.76
4.34
4.24
4.92
6.51
8.70
10.84
12.30
12.80
12.53
12.12
12.29
13.38
15.36
17.84
20.30
22.49
24.34
25.97
27.55
29.22
31.25
34.05
38.11
43.87
51.29
59.67
67.71
73.92
77.04
76.55
72.70
66.28
58.29
49.65
41.10
33.29
26.78
22.03
19.22
18.20
18.37
18.87
18.86
17.72
15.14
11.13
5.84
-0.59
-8.05
-16.47
-25.69
-35.33
-44.75
-53.08
-59.44
-63.19
-64.14
-62.64
-59.44
-55.19
-50.18
-44.14
-36.36
-26.21
-13.47
1.33
16.88
31.33
42.64
49.01
49.24
43.22
32.13
18.26
4.31
-7.62
-16.91
-24.41
-31.94
-41.15
-52.64
-65.82
-79.37
-91.79
-101.73
-107.84
-108.70
-103.22
-91.21
-74.10
-54.90
-37.31
-24.35
-17.43
-16.14
-18.88
-23.72
-28.90
-32.85
-34.10
-31.23
-23.27
-10.34
6.06
23.23
38.01
47.91
52.12
51.85
50.09
50.52
56.09
67.77
84.03
101.34
115.44
123.05
122.84
115.68
103.85
89.91
75.84
62.64
50.57
39.63
29.89
21.71
15.66
12.34
12.25
15.66
22.57
32.56
44.65
57.20
67.96
74.53
75.08
68.98
57.11
41.64
25.24
10.26
-1.86
-10.67
-16.47
-19.76
-21.08
-20.90
-19.85
-18.71
-18.27
-19.06
-21.13
-24.12
-27.43
-30.58
-33.36
-35.79
-38.02
-40.06
-41.76
-42.74
-42.52
-40.59
-36.61
-30.49
-22.54
-13.35
-3.66
5.80
14.57
22.41
29.22
34.85
39.00
41.33
41.70
40.34
37.78
34.77
31.96
29.62
27.70
25.90
23.87
21.34
18.20
14.37
9.85
4.67
-1.08
-7.18
-13.44
-19.75
-26.19
-32.90
-39.90
-46.90
-53.17
-57.79
-60.00
-59.58
-57.00
-53.24
-49.41
-46.17
-43.63
-41.38
-38.89
-35.87
-32.49
-29.28
-26.80
-25.33
-24.75
-24.62
-24.34
-23.40
-21.61
-19.03
-15.97
-12.78
-9.80
-7.27
-5.33
-4.09
-3.57
-3.73
-4.34
-5.06
-5.51
-5.40
-4.70
-3.63
-2.52
-1.59
-0.79
0.27
2.20
5.57
10.67
17.39
25.20
33.32
40.84
46.93
51.03
52.84
52.42
50.13
46.44
41.90
37.00
32.05
27.24
22.64
18.25
14.05
10.00
6.11
2.37
-1.16
-4.45
-7.46
-10.17
-12.56
-14.58
-16.15
-17.15
-17.55
-17.45
-17.19
-17.24
-18.04
-19.89
-22.72
-26.11
-29.36
-31.73
-32.56
-31.50
-28.50
-23.86
-18.14
-12.10
-6.56
-2.22
0.37
1.01
-0.15
-2.67
-6.03
-9.84
-13.96
-18.57
-23.90
-30.09
-36.98
-44.15
-51.07
-57.31
-62.69
-67.16
-70.72
-73.18
-74.23
-73.55
-71.07
-67.08
-62.23
-57.37
-53.19
-50.07
-47.81
-45.81
-43.18
-39.08
-33.02
-25.00
-15.54
-5.49
4.26
13.03
20.54
26.78
31.90
35.96
38.95
40.76
41.42
41.15
40.37
39.45
38.62
37.82
36.78
35.22
32.99
30.17
27.07
24.05
21.49
19.59
18.45
17.90
17.63
17.24
16.33
14.60
11.95
8.37
3.96
-1.07
-6.39
-11.41
-15.37
-17.40
-16.89
-13.75
-8.58
-2.44
3.44
8.09
11.02
12.22
11.91
10.45
8.12
5.21
2.06
-0.96
-3.44
-5.15
-6.10
-6.60
-7.17
-8.35
-10.50
-13.68
-17.59
-21.67
-25.19
-27.58
-28.67
-28.76
-28.58
-28.94
-30.41
-33.02
-36.28
-39.38
-41.46
-41.92
-40.59
-37.61
-33.38
-28.34
-22.96
-17.62
-12.64
-8.24
-4.54
-1.51
0.95
2.98
4.65
5.97
6.87
7.32
7.39
7.27
7.23
7.52
8.29
9.59
11.35
13.44
15.67
17.70
19.20
19.88
19.59
18.35
16.34
13.78
10.93
8.08
5.53
3.55
2.24
1.60
1.73
3.34
7.98
17.82
34.59
58.42
86.87
115.07
136.97
147.12
142.08
121.24
86.70
42.65
-5.54
-52.23
-92.50
-123.05
-142.83
-153.11
-157.06
-158.72
-161.77
-168.28
-177.93
-187.96
-194.16
-192.64
-181.85
-163.61
-142.52
-123.48
-108.85
-96.69
-81.66
-58.28
-24.66
15.81
56.13
89.64
114.13
132.83
151.82
175.22
201.45
223.43
232.47
223.59
198.74
165.94
135.14
113.68
104.05
104.94
113.95
129.48
150.53
174.78
197.17
210.45
207.96
186.97
150.35
105.72
62.11
26.41
1.13
-15.33
-26.69
-36.20
-44.78
-50.79
-51.23
-43.92
-29.12
-10.11
7.85
19.53
21.69
14.03
-1.22
-20.81
-42.03
-63.54
-85.16
-106.92
-128.15
-147.15
-161.86
-171.01
-174.93
-175.64
-175.72
-176.87
-178.94
-179.98
-177.54
-170.26
-158.91
-146.23
-135.59
-129.27
-127.44
-128.44
-129.83
-129.68
-127.06
-121.60
-112.78
-99.66
-81.61
-59.33
-35.48
-14.13
0.72
6.90
4.93
-2.53
-12.16
-21.49
-29.62
-36.89
-44.04
-51.49
-59.14
-66.80
-74.35
-81.73
-88.50
-93.46
-94.75
-90.32
-78.98
-61.26
-39.58
-17.73
0.50
12.72
18.85
21.05
22.78
27.30
36.37
49.68
65.07
79.54
90.23
95.36
94.44
88.14
77.85
65.17
51.58
38.29
26.25
16.14
8.47
3.44
0.88
0.32
1.20
3.19
6.47
11.57
18.91
28.23
38.20
46.55
50.88
49.47
41.99
29.61
14.51
-0.82
-14.17
-23.88
-29.05
-29.34
-25.10
-17.32
-7.53
2.55
11.50
18.56
23.75
27.59
30.68
33.35
35.57
37.14
37.95
38.18
38.23
38.41
38.72
38.83
38.30
37.00
35.38
34.44
35.32
38.72
44.39
51.10
57.05
60.48
60.31
56.41
49.34
39.99
29.17
17.68
6.45
-3.19
-9.61
-11.38
-7.89
0.16
10.93
22.08
31.67
38.76
43.44
46.45
48.60
50.47
52.41
54.70
57.55
61.00
64.67
67.86
69.77
69.93
68.45
65.96
63.21
60.64
58.19
55.40
51.77
47.07
41.37
34.97
28.15
20.96
13.34
5.17
-3.63
-12.96
-22.52
-31.88
-40.47
-47.58
-52.44
-54.32
-52.74
-47.83
-40.42
-31.94
-24.05
-18.10
-14.68
-13.58
-13.92
-14.69
-15.24
-15.36
-15.13
-14.66
-13.71
-11.83
-8.48
-3.50
2.80
9.63
16.01
21.11
24.52
26.30
26.77
26.34
25.28
23.76
21.83
19.65
17.41
15.27
13.25
11.19
8.81
5.95
2.82
0.10
-1.17
-0.02
4.10
10.99
19.66
28.65
36.51
42.22
45.45
46.58
46.33
45.56
44.91
44.73
45.06
45.82
46.79
47.75
48.49
48.85
48.76
48.41
48.11
48.24
49.08
50.56
52.32
53.65
53.74
51.94
47.94
42.00
34.91
27.81
21.73
17.31
14.47
12.50
10.53
7.83
4.26
0.05
-4.41
-9.05
-14.13
-20.11
-27.14
-34.74
-41.73
-46.56
-47.88
-45.09
-38.62
-29.79
-20.47
-12.40
-6.76
-3.90
-3.39
-4.32
-5.70
-6.84
-7.40
-7.41
-7.09
-6.62
-6.18
-5.90
-5.91
-6.36
-7.32
-8.70
-10.24
-11.60
-12.45
-12.66
-12.27
-11.55
-10.79
-10.20
-9.90
-9.97
-10.53
-11.85
-14.15
-17.61
-22.10
-27.19
-32.13
-36.04
-38.05
-37.55
-34.34
-28.73
-21.41
-13.31
-5.40
1.60
7.19
11.19
13.61
14.59
14.41
13.44
12.15
11.02
10.40
10.45
10.99
11.65
11.98
11.70
10.79
9.51
8.24
7.14
5.98
4.04
0.42
-5.49
-13.47
-22.44
-30.64
-36.37
-38.61
-37.41
-33.54
-28.07
-21.88
-15.46
-9.05
-2.80
3.38
10.03
18.51
30.69
48.21
71.37
98.38
125.54
148.47
163.66
169.68
167.41
159.23
147.80
135.04
121.86
108.41
94.69
80.87
67.19
53.84
40.65
27.20
13.14
-1.48
-16.13
-29.86
-41.65
-50.76
-56.86
-60.14
-60.95
-59.69
-56.61
-51.85
-45.59
-38.21
-30.28
-22.42
-15.13
-8.53
-2.49
3.24
8.79
14.03
18.54
21.69
22.62
20.48
14.79
5.92
-4.64
-14.63
-21.80
-25.01
-24.76
-22.96
-21.90
-23.15
-26.84
-31.97
-37.11
-41.37
-44.64
-47.39
-50.05
-52.62
-54.70
-55.68
-55.10
-52.67
-48.43
-42.76
-36.39
-30.33
-25.57
-22.63
-21.32
-21.00
-20.84
-20.40
-19.82
-19.48
-19.72
-20.40
-20.97
-20.78
-19.51
-17.48
-15.49
-14.48
-14.97
-16.96
-20.01
-23.48
-26.85
-29.97
-32.93
-36.02
-39.55
-43.67
-48.43
-53.62
-58.87
-63.59
-67.17
-69.04
-68.93
-66.94
-63.29
-58.22
-51.55
-42.53
-30.18
-13.68
6.99
30.73
55.42
78.42
97.24
110.00
115.68
114.00
105.51
91.68
74.82
57.73
42.98
31.87
24.01
17.63
10.57
1.58
-8.96
-19.30
-27.35
-31.74
-32.48
-30.62
-27.47
-23.92
-20.13
-15.91
-11.23
-6.60
-2.92
-1.02
-1.24
-3.11
-5.56
-7.32
-7.40
-5.42
-1.63
3.30
8.65
13.94
18.86
23.17
26.48
28.22
27.76
24.83
19.74
13.50
7.52
3.08
0.83
0.57
1.29
1.58
0.22
-3.47
-9.26
-16.14
-22.49
-26.67
-27.49
-24.72
-19.12
-12.25
-5.85
-1.15
1.45
2.35
2.41
2.33
2.38
2.35
1.85
0.64
-1.14
-3.13
-5.03
-6.79
-8.67
-11.01
-13.91
-17.07
-19.91
-21.86
-22.68
-22.58
-22.14
-22.05
-22.76
-24.29
-26.23
-27.93
-28.74
-28.15
-26.00
-22.37
-17.66
-12.39
-7.21
-2.71
0.78
3.16
4.71
5.86
7.04
8.48
10.13
11.73
12.97
13.67
13.75
13.22
12.02
10.06
7.30
3.91
0.27
-3.16
-6.03
-8.25
-10.08
-11.97
-14.29
-17.22
-20.59
-23.91
-26.53
-27.82
-27.40
-25.28
-21.97
-18.32
-15.33
-13.77
-13.91
-15.39
-17.13
-17.65
-15.34
-9.01
1.74
16.19
32.52
48.32
61.17
69.42
72.57
71.26
66.77
60.37
52.97
45.02
36.64
27.91
18.93
9.71
0.09
-10.22
-21.45
-33.40
-45.33
-56.07
-64.38
-69.37
-70.85
-69.24
-65.41
-60.30
-54.71
-49.14
-43.78
-38.60
-33.51
-28.44
-23.52
-18.91
-14.82
-11.36
-8.45
-5.86
-3.37
-0.85
1.56
3.49
4.46
3.99
1.85
-1.88
-6.86
-12.47
-18.07
-23.08
-27.03
-29.66
-30.84
-30.50
-28.68
-25.42
-20.91
-15.47
-9.53
-3.65
1.63
5.94
9.17
11.45
13.09
14.34
15.21
15.51
14.97
13.55
11.56
9.65
8.41
8.11
8.41
8.49
7.54
5.12
1.50
-2.53
-6.04
-8.47
-9.81
-10.52
-11.31
-12.71
-14.93
-17.72
-20.52
-22.53
-22.92
-21.09
-16.86
-10.67
-3.45
3.53
9.24
13.15
15.36
16.36
16.70
16.70
16.41
15.81
14.93
14.01
13.32
13.00
12.88
12.55
11.58
9.68
6.92
3.60
0.15
-3.10
-6.05
-8.81
-11.65
-14.86
-18.56
-22.68
-26.84
-30.44
-32.72
-32.99
-30.81
-26.16
-19.49
-11.66
-3.62
3.78
10.06
15.08
18.94
21.72
23.33
23.65
22.64
20.54
17.93
15.43
13.56
12.37
11.60
10.76
9.51
7.76
5.60
3.20
0.56
-2.43
-5.90
-9.85
-14.04
-18.10
-21.61
-24.32
-26.08
-26.91
-26.75
-25.49
-23.04
-19.50
-15.20
-10.75
-6.79
-3.83
-2.01
-1.06
-0.52
0.06
0.91
1.95
2.96
3.82
4.61
5.60
6.99
8.74
10.47
11.63
11.77
10.89
9.51
8.53
8.88
11.19
15.40
20.85
26.42
30.82
33.00
32.35
28.93
23.50
17.41
12.43
10.17
11.59
16.47
23.39
30.14
34.53
35.28
32.38
26.88
20.21
13.48
7.07
0.87
-5.21
-10.91
-15.56
-18.47
-19.34
-18.45
-16.54
-14.43
-12.73
-11.64
-11.13
-11.05
-11.32
-11.99
-13.08
-14.58
-16.25
-17.78
-18.82
-19.16
-18.89
-18.28
-17.72
-17.45
-17.37
-17.05
-15.93
-13.60
-10.01
-5.45
-0.42
4.56
9.17
13.22
16.58
19.10
20.58
20.78
19.55
16.95
13.27
9.03
4.86
1.37
-1.04
-2.30
-2.68
-2.72
-2.94
-3.76
-5.25
-7.31
-9.78
-12.66
-16.12
-20.35
-25.31
-30.47
-34.86
-37.28
-36.82
-33.27
-27.16
-19.71
-12.21
-5.65
-0.48
3.37
6.12
7.88
8.58
8.10
6.64
4.90
4.02
5.12
8.76
14.46
20.76
25.57
27.08
24.31
17.59
8.38
-1.24
-9.28
-14.38
-16.16
-15.25
-13.03
-11.11
-10.64
-11.78
-13.65
-14.74
-13.88
-11.05
-7.64
-5.84
-7.36
-12.33
-19.00
-24.36
-25.27
-19.19
-4.40
19.65
51.85
88.59
123.55
149.11
159.04
151.27
129.21
100.24
72.24
50.07
34.07
21.32
8.62
-4.99
-17.74
-26.75
-30.30
-29.22
-26.29
-24.59
-25.77
-29.44
-33.68
-36.29
-35.99
-32.85
-28.02
-22.94
-18.67
-15.60
-13.39
-11.62
-10.16
-9.41
-10.13
-12.91
-17.57
-22.78
-26.13
-24.68
-16.17
-0.09
21.51
44.32
63.05
73.25
72.92
62.98
46.66
27.87
9.77
-6.06
-19.45
-30.78
-40.20
-47.22
-50.94
-50.51
-45.64
-36.71
-24.69
-10.90
3.32
16.87
28.94
39.00
46.78
52.21
55.40
56.70
56.65
55.89
55.00
54.30
53.83
53.32
52.37
50.54
47.43
42.79
36.55
28.87
20.15
10.93
1.72
-7.16
-15.60
-23.56
-30.78
-36.67
-40.34
-40.90
-37.89
-31.57
-22.91
-13.40
-4.52
2.68
7.77
10.87
12.43
12.93
12.71
12.01
11.06
10.12
9.49
9.26
9.28
9.13
8.35
6.67
4.31
1.81
-0.13
-1.01
-0.79
0.09
0.88
0.82
-0.68
-3.84
-8.63
-14.71
-21.54
-28.27
-33.84
-37.02
-36.82
-32.78
-25.25
-15.38
-4.71
5.27
13.59
19.95
24.58
27.89
30.13
31.42
31.71
31.13
30.00
28.75
27.74
27.10
26.68
26.18
25.27
23.72
21.43
18.41
14.76
10.71
6.56
2.57
-1.13
-4.76
-8.77
-13.69
-19.80
-26.90
-34.34
-41.25
-46.87
-50.73
-52.68
-52.82
-51.28
-48.32
-44.38
-40.13
-36.41
-33.81
-32.43
-31.85
-31.39
-30.66
-29.87
-29.77
-31.12
-34.11
-38.06
-41.59
-43.33
-42.51
-39.32
-34.72
-29.72
-24.97
-20.50
-16.05
-11.54
-7.40
-4.37
-3.25
-4.30
-7.14
-10.87
-14.41
-16.84
-17.60
-16.49
-13.45
-8.63
-2.39
4.57
11.20
16.34
19.21
19.79
18.97
18.20
18.94
21.92
26.87
32.67
37.90
41.48
43.10
43.10
42.09
40.42
38.01
34.54
29.72
23.76
17.40
11.65
7.42
5.14
4.76
5.76
7.53
9.56
11.56
13.36
14.82
15.82
16.33
16.48
16.62
17.22
18.64
20.98
23.98
27.13
29.86
31.77
32.80
33.20
33.34
33.52
33.89
34.39
34.97
35.71
36.78
38.37
40.51
42.90
44.97
46.03
45.54
43.24
39.13
33.44
26.50
18.72
10.67
3.04
-3.49
-8.49
-12.02
-14.56
-16.94
-19.85
-23.64
-28.11
-32.59
-36.24
-38.23
-38.09
-35.62
-31.17
-25.47
-19.57
-14.72
-11.92
-11.72
-13.98
-17.86
-22.18
-25.85
-28.12
-28.80
-27.97
-25.99
-22.92
-18.80
-13.69
-7.92
-2.41
1.58
2.86
0.84
-3.90
-9.82
-14.81
-17.18
-16.27
-12.72
-8.16
-4.28
-2.40
-2.93
-5.63
-9.92
-14.99
-20.07
-24.13
-25.93
-24.16
-17.87
-6.82
8.20
25.51
42.95
58.56
70.97
80.01
86.46
91.74
97.31
103.96
111.49
118.68
123.80
125.34
122.47
115.39
104.94
92.19
78.00
62.61
46.05
28.42
10.40
-6.69
-21.33
-32.44
-39.81
-44.15
-46.67
-48.40
-49.93
-51.34
-52.63
-53.95
-55.72
-58.44
-62.24
-66.69
-70.79
-73.26
-73.04
-69.60
-63.11
-54.31
-44.32
-34.25
-25.05
-17.28
-11.09
-6.29
-2.52
0.59
3.24
5.45
7.11
8.12
8.50
8.41
8.12
7.77
7.31
6.38
4.35
0.51
-5.57
-13.80
-23.27
-32.34
-38.91
-41.09
-37.90
-29.70
-18.20
-5.96
4.49
11.31
13.81
12.32
7.90
1.81
-4.74
-10.68
-15.15
-17.48
-17.41
-15.14
-11.42
-7.34
-4.06
-2.32
-2.30
-3.57
-5.36
-6.90
-7.77
-8.03
-8.08
-8.54
-9.92
-12.51
-16.35
-21.13
-26.24
-30.81
-33.81
-34.38
-32.12
-27.33
-21.01
-14.51
-9.03
-5.26
-3.30
-2.79
-3.24
-4.28
-5.69
-7.28
-8.83
-10.06
-10.68
-10.67
-10.16
-9.55
-9.22
-9.44
-10.22
-11.36
-12.58
-13.59
-14.24
-14.51
-14.54
-14.63
-15.12
-16.25
-18.11
-20.42
-22.57
-23.78
-23.32
-20.91
-16.73
-11.43
-5.85
-0.69
3.67
7.20
9.99
12.14
13.60
14.29
14.30
13.87
13.41
13.23
13.45
13.88
14.21
14.10
13.38
12.09
10.43
8.66
6.96
5.37
3.78
2.06
0.03
-2.37
-5.08
-7.87
-10.30
-11.82
-11.80
-9.77
-5.57
0.50
7.68
15.00
21.55
26.66
30.12
32.08
32.87
32.90
32.44
31.67
30.75
29.84
29.06
28.41
27.69
26.52
24.41
21.03
16.40
10.95
5.45
0.66
-2.89
-5.22
-6.75
-8.18
-10.20
-13.24
-17.43
-22.51
-27.89
-32.77
-36.39
-38.13
-37.70
-35.23
-31.22
-26.39
-21.51
-17.27
-14.16
-12.47
-12.30
-13.49
-15.67
-18.30
-20.80
-22.70
-23.84
-24.34
-24.60
-25.08
-26.15
-27.88
-29.97
-31.92
-33.17
-33.24
-31.76
-28.49
-23.31
-16.20
-7.33
2.92
13.95
25.06
35.54
44.73
52.14
57.50
60.71
61.92
61.32
59.09
55.38
50.37
44.40
37.91
31.40
25.17
19.31
13.73
8.28
3.14
-1.28
-4.48
-6.09
-6.34
-5.95
-5.86
-6.63
-8.19
-9.73
-10.37
-9.61
-7.81
-6.00
-5.57
-7.21
-10.70
-14.73
-17.36
-17.13
-13.43
-6.95
0.73
7.86
13.27
16.73
18.78
20.34
22.03
23.86
25.44
26.15
25.80
24.78
23.73
23.37
23.79
24.47
24.51
23.09
19.92
15.44
10.51
6.09
2.73
0.39
-1.59
-3.92
-7.20
-11.48
-16.21
-20.76
-24.52
-27.34
-29.31
-30.61
-31.11
-30.36
-27.85
-23.37
-17.30
-10.67
-4.74
-0.61
1.42
1.82
1.62
1.93
3.20
5.27
7.43
8.93
9.51
9.46
9.36
9.70
10.45
11.15
11.07
9.82
7.55
4.83
2.46
0.78
-0.22
-1.08
-2.38
-4.55
-7.69
-11.64
-16.12
-20.85
-25.54
-29.82
-33.20
-35.21
-35.41
-33.73
-30.49
-26.30
-22.10
-18.63
-16.43
-15.56
-15.61
-15.90
-15.82
-15.00
-13.53
-11.76
-10.27
-9.41
-9.29
-9.74
-10.29
-10.64
-10.57
-10.22
-9.90
-9.89
-10.28
-10.84
-11.19
-11.02
-10.33
-9.52
-9.20
-10.02
-12.09
-15.10
-18.28
-20.67
-21.67
-20.94
-18.63
-15.02
-10.42
-5.03
0.88
6.97
12.68
17.43
20.56
21.87
21.48
19.99
18.22
16.78
15.97
15.59
15.17
14.26
12.73
10.84
9.04
7.72
6.98
6.55
6.04
4.98
3.31
1.24
-0.90
-2.65
-4.05
-5.38
-7.27
-10.26
-14.26
-18.43
-21.39
-21.75
-18.78
-12.89
-5.63
1.17
6.01
8.58
9.73
10.68
12.31
14.50
16.40
16.92
15.70
13.27
10.80
9.40
9.46
10.37
11.14
10.76
9.07
6.68
4.55
3.53
3.55
3.85
3.30
1.08
-2.77
-7.36
-11.40
-13.80
-14.13
-12.77
-10.67
-8.57
-6.79
-5.00
-2.47
1.17
5.79
10.45
13.99
15.47
14.76
12.52
9.91
7.92
7.10
7.17
7.61
7.73
7.33
6.57
5.79
5.27
4.88
4.16
2.51
-0.39
-4.41
-8.95
-13.28
-16.78
-19.20
-20.57
-21.26
-21.39
-21.00
-19.91
-17.79
-14.66
-10.79
-6.87
-3.63
-1.58
-0.77
-0.79
-0.96
-0.69
0.34
1.85
3.38
4.28
4.32
3.74
3.09
3.00
3.49
4.10
3.99
2.53
-0.30
-3.80
-6.92
-8.80
-9.19
-8.36
-7.12
-5.86
-4.61
-2.94
-0.24
3.61
8.21
12.59
15.74
17.01
16.38
14.39
11.86
9.53
7.85
6.74
5.95
5.01
3.80
2.44
1.20
0.46
0.15
-0.08
-0.92
-2.93
-6.25
-10.40
-14.43
-17.30
-18.32
-17.33
-14.90
-11.79
-8.71
-6.01
-3.57
-1.28
0.95
2.71
3.55
3.12
1.63
-0.11
-1.05
-0.28
2.34
6.08
9.74
12.02
12.32
10.89
8.56
6.34
4.67
3.29
1.40
-1.77
-6.48
-12.19
-17.89
-22.48
-25.26
-26.00
-24.98
-22.44
-18.58
-13.53
-7.39
-0.79
5.51
10.53
13.62
14.72
14.46
13.76
13.52
14.19
15.59
16.99
17.60
16.81
14.66
11.73
8.76
6.36
4.51
2.71
0.33
-2.98
-6.98
-11.00
-14.37
-16.76
-18.31
-19.36
-20.25
-20.77
-20.47
-18.82
-15.52
-10.95
-5.87
-1.30
2.02
3.89
4.69
5.09
5.72
6.88
8.42
9.84
10.65
10.49
9.40
7.75
5.91
4.21
2.56
0.59
-2.12
-5.75
-10.04
-14.39
-18.19
-21.22
-23.69
-26.04
-28.69
-31.29
-33.02
-32.84
-29.97
-24.70
-18.15
-11.99
-7.51
-5.01
-3.58
-1.72
1.92
7.87
15.65
24.13
32.17
39.11
44.84
49.63
53.57
56.44
57.66
56.68
53.28
47.63
40.22
31.51
21.85
11.44
0.47
-10.64
-21.30
-30.60
-37.52
-41.25
-41.38
-38.20
-32.59
-25.71
-18.61
-12.01
-6.18
-1.27
2.70
5.54
7.05
7.18
6.17
4.51
2.80
1.58
1.13
1.46
2.41
3.70
5.08
6.31
7.23
7.59
7.22
6.00
4.01
1.52
-0.97
-2.89
-3.73
-3.20
-1.26
1.76
5.38
8.99
12.06
14.25
15.43
15.73
15.41
14.71
13.84
12.88
11.99
11.24
10.73
10.55
10.61
10.77
10.71
10.26
9.38
8.26
7.22
6.49
6.08
5.86
5.61
5.36
5.35
6.03
7.76
10.67
14.53
18.86
22.99
26.34
28.43
29.04
28.20
26.20
23.40
20.14
16.58
12.64
8.23
3.30
-1.95
-7.13
-11.92
-16.16
-19.98
-23.58
-27.13
-30.59
-33.82
-36.57
-38.62
-39.78
-39.87
-38.67
-36.08
-32.15
-27.24
-21.97
-17.03
-13.01
-10.26
-8.80
-8.40
-8.70
-9.29
-9.76
-9.79
-9.17
-8.01
-6.73
-6.06
-6.72
-9.20
-13.48
-19.00
-24.96
-30.64
-35.69
-40.29
-44.84
-49.76
-55.17
-60.78
-66.06
-70.43
-73.55
-75.42
-76.34
-76.76
-77.08
-77.54
-78.32
-79.60
-81.72
-85.21
-90.55
-98.01
-107.19
-117.02
-125.98
-132.47
-135.39
-134.24
-129.04
-119.91
-106.84
-89.73
-68.71
-44.52
-18.59
7.42
32.17
55.03
75.99
95.17
112.27
126.55
137.40
144.94
150.44
155.93
163.40
173.91
187.09
201.42
214.92
226.07
234.43
240.74
246.48
253.10
261.20
270.08
277.95
282.78
283.21
278.94
270.56
258.55
242.83
222.56
196.99
166.47
132.86
99.08
67.86
40.51
16.52
-5.98
-28.77
-52.62
-76.70
-99.14
-117.99
-132.08
-141.64
-147.93
-152.57
-156.69
-160.33
-162.49
-161.90
-157.79
-150.41
-140.95
-131.08
-122.00
-114.15
-107.26
-100.78
-94.50
-88.57
-83.61
-80.09
-78.16
-77.46
-77.32
-77.05
-76.34
-75.26
-74.32
-73.99
-74.41
-75.04
-74.75
-72.14
-66.08
-56.42
-44.15
-31.19
-19.72
-11.34
-6.53
-4.66
-4.32
-3.87
-1.82
2.81
10.88
22.95
39.24
59.30
81.57
103.61
122.56
136.08
143.03
143.63
138.97
130.23
118.08
102.70
84.10
62.69
39.36
15.53
-7.41
-28.48
-47.04
-62.75
-75.09
-83.43
-87.03
-85.53
-79.22
-69.18
-57.17
-45.04
-34.24
-25.54
-18.81
-13.33
-8.08
-2.16
4.85
12.99
22.01
31.64
41.57
51.42
60.61
68.33
73.76
76.16
75.05
70.14
61.18
47.92
30.29
8.46
-16.77
-43.99
-71.18
-96.05
-116.37
-130.21
-136.30
-134.12
-124.01
-107.13
-85.32
-60.97
-36.63
-14.47
4.36
20.33
35.47
52.47
73.19
97.17
121.01
139.18
146.20
138.85
117.59
86.27
50.41
14.99
-17.06
-45.14
-70.03
-92.60
-112.97
-130.49
-144.47
-154.88
-162.64
-168.94
-174.40
-178.31
-178.67
-173.15
-160.34
-140.61
-116.12
-89.86
-64.76
-42.76
-25.05
-12.32
-4.97
-2.91
-4.86
-8.16
-9.15
-4.45
7.47
25.55
46.36
65.42
78.88
84.61
82.46
73.75
60.32
44.00
26.40
9.07
-6.23
-17.45
-22.68
-20.68
-11.33
4.09
23.40
43.81
62.87
78.58
89.74
95.81
96.79
93.20
85.99
76.44
66.12
56.47
48.58
43.06
39.82
38.27
37.35
35.93
32.95
27.97
21.24
13.69
6.56
0.74
-3.58
-6.95
-10.09
-13.43
-16.76
-19.50
-21.27
-22.31
-23.50
-26.07
-30.51
-36.48
-42.48
-46.47
-46.95
-43.45
-37.11
-30.11
-24.73
-22.33
-22.74
-24.53
-25.86
-25.56
-23.88
-21.91
-21.16
-22.14
-24.13
-25.64
-25.07
-21.95
-16.99
-11.59
-6.88
-3.03
0.80
5.80
12.61
20.81
28.94
34.81
36.81
34.24
27.76
19.17
10.50
3.56
-0.81
-2.50
-1.96
0.35
4.08
9.00
14.68
20.37
24.72
26.55
24.99
20.33
13.92
7.66
3.42
2.03
3.11
5.24
6.81
6.75
4.96
2.22
-0.38
-2.02
-2.58
-2.91
-3.99
-6.68
-11.24
-17.09
-23.43
-29.39
-34.45
-38.22
-40.19
-39.62
-35.72
-28.11
-17.24
-4.46
8.13
18.57
25.48
28.59
28.67
26.93
24.86
23.36
22.84
23.15
23.92
24.81
25.75
26.87
28.22
29.64
30.68
30.52
28.69
25.08
20.23
15.06
10.19
5.70
0.90
-4.99
-12.25
-20.07
-26.66
-30.02
-28.79
-23.04
-14.39
-5.13
2.59
7.72
10.53
12.02
13.39
15.09
16.84
17.96
18.04
17.37
16.81
17.30
19.18
21.90
24.19
24.48
21.97
16.77
10.03
3.47
-1.60
-4.71
-6.48
-8.15
-10.94
-15.35
-20.97
-26.69
-31.11
-33.14
-32.48
-29.31
-24.39
-18.35
-11.60
-4.43
2.98
10.03
15.86
19.51
20.42
18.79
15.69
12.60
10.85
11.05
12.94
15.43
17.45
18.24
17.64
16.16
14.23
12.11
9.74
6.92
3.58
-0.01
-3.38
-6.18
-8.42
-10.53
-13.37
-17.51
-23.02
-29.02
-33.83
-35.68
-33.27
-26.65
-17.15
-6.87
2.21
9.00
13.59
16.80
19.52
22.06
24.13
25.00
24.37
22.50
20.28
18.90
19.01
20.50
22.44
23.67
23.42
21.57
18.77
15.88
13.45
11.55
9.50
6.65
2.51
-2.72
-8.26
-13.31
-17.35
-20.70
-24.22
-28.84
-34.87
-41.51
-47.01
-49.30
-46.85
-39.44
-28.30
-15.84
-4.38
4.50
10.51
14.54
17.67
20.62
23.36
25.39
26.35
26.35
26.08
26.31
27.47
29.34
31.01
31.55
30.28
27.32
23.49
19.70
16.68
14.34
12.05
8.93
4.44
-1.16
-6.91
-11.59
-14.35
-15.26
-15.24
-15.84
-18.26
-22.99
-29.46
-36.12
-41.20
-43.15
-41.26
-35.72
-27.46
-17.69
-7.61
1.98
10.57
17.92
23.75
27.91
30.27
31.03
30.85
30.40
30.33
30.74
31.31
31.49
30.88
29.54
27.84
26.32
25.28
24.65
24.13
23.19
21.60
19.39
16.85
14.44
12.27
10.17
7.70
4.50
0.62
-3.33
-6.51
-8.23
-8.44
-7.93
-8.23
-10.82
-16.70
-25.79
-36.77
-47.73
-56.46
-61.44
-61.97
-58.36
-51.62
-43.00
-33.61
-24.34
-15.74
-8.24
-2.06
2.48
5.52
7.40
8.77
10.46
12.92
16.12
19.41
22.00
23.40
23.72
23.62
23.78
24.47
25.35
25.44
23.96
20.57
15.83
10.94
6.87
4.12
2.24
0.26
-2.74
-7.01
-12.12
-17.23
-21.65
-25.17
-28.04
-30.41
-32.29
-32.88
-31.15
-26.37
-18.44
-8.47
1.65
9.90
14.97
16.75
16.33
15.28
14.95
15.73
17.14
17.98
17.40
15.08
11.40
7.10
2.47
-2.53
-8.39
-15.34
-23.03
-30.46
-36.32
-39.65
-40.12
-38.22
-34.99
-31.58
-29.21
-28.54
-29.79
-32.55
-35.69
-37.86
-37.71
-34.37
-27.60
-17.78
-5.77
7.22
19.87
30.94
39.58
45.20
47.90
48.02
46.21
43.24
39.58
35.60
31.39
27.00
22.52
18.13
14.06
10.56
7.75
5.53
3.60
1.62
-0.80
-3.58
-6.36
-8.53
-9.55
-9.56
-9.41
-10.52
-14.12
-20.63
-29.20
-38.03
-45.00
-48.52
-47.98
-44.05
-37.89
-30.84
-23.78
-16.94
-10.41
-4.14
1.51
6.09
9.23
11.04
12.11
13.31
15.38
18.50
22.16
25.54
27.66
28.19
27.33
25.69
24.03
22.58
21.16
19.27
16.60
13.31
10.10
7.80
6.88
7.11
7.59
6.88
3.91
-1.74
-9.35
-17.20
-23.32
-25.97
-24.58
-19.69
-12.74
-5.39
1.23
6.75
11.51
15.97
20.17
23.57
25.21
24.54
21.74
17.77
14.10
11.68
10.63
10.16
9.14
6.78
2.98
-1.77
-6.87
-12.11
-17.74
-24.37
-32.09
-40.33
-47.77
-52.82
-54.64
-53.42
-50.54
-47.87
-46.85
-47.86
-49.97
-51.51
-50.81
-47.00
-40.45
-32.31
-24.12
-16.78
-10.31
-4.09
2.75
10.33
17.96
24.28
28.20
29.56
29.44
29.66
31.76
36.23
42.22
47.88
51.59
52.63
51.47
49.38
47.43
45.97
44.60
42.78
40.49
38.42
37.52
38.28
40.16
41.58
40.52
35.45
25.90
12.90
-1.66
-15.67
-27.49
-36.60
-43.30
-48.41
-52.56
-55.78
-57.54
-57.10
-54.05
-48.53
-41.07
-32.16
-21.74
-9.26
5.68
22.83
40.78
57.42
70.70
79.40
83.46
83.58
80.47
74.38
65.16
52.79
37.89
21.87
6.29
-7.80
-20.47
-32.81
-46.10
-60.78
-75.76
-88.53
-96.05
-95.96
-87.62
-72.32
-52.83
-32.24
-12.96
3.63
17.29
28.32
36.99
43.39
47.52
49.70
50.63
51.41
52.98
55.72
59.19
62.35
64.07
63.76
61.73
59.10
57.19
57.03
58.87
62.15
65.92
69.12
71.17
71.89
71.62
71.10
71.28
73.02
76.79
82.36
88.71
94.07
96.56
94.54
87.15
74.45
57.26
37.00
15.47
-5.35
-23.47
-37.23
-45.54
-48.01
-45.06
-37.81
-28.12
-18.56
-12.23
-12.11
-20.17
-36.41
-58.48
-82.24
-102.99
-117.03
-122.80
-121.10
-114.42
-106.06
-99.01
-95.33
-95.67
-99.37
-104.53
-108.80
-109.95
-106.48
-98.26
-86.14
-71.77
-56.93
-43.06
-31.04
-21.14
-13.09
-6.30
0.02
6.42
13.32
20.65
28.13
35.40
42.22
48.70
55.03
61.35
67.56
73.22
77.68
80.29
80.54
78.25
73.72
67.60
60.61
53.65
47.39
42.28
38.67
36.49
35.51
35.12
34.76
34.01
32.85
31.50
30.12
28.59
26.46
22.98
17.86
11.18
3.76
-3.30
-9.19
-13.51
-16.72
-19.70
-23.36
-28.12
-33.63
-38.91
-42.86
-44.81
-44.97
-44.29
-44.29
-46.01
-49.66
-54.44
-58.70
-61.09
-60.87
-58.35
-54.35
-49.72
-44.73
-39.15
-32.62
-25.18
-17.48
-10.90
-6.71
-5.73
-7.59
-10.95
-14.05
-15.24
-14.05
-11.12
-7.90
-5.85
-5.57
-6.65
-7.91
-8.22
-7.26
-5.60
-4.70
-5.66
-8.98
-14.19
-20.08
-25.64
-30.21
-33.67
-36.01
-36.87
-35.56
-31.49
-24.63
-15.90
-6.92
0.38
4.81
5.99
4.67
2.20
-0.29
-2.06
-3.35
-4.91
-7.75
-12.45
-18.67
-25.05
-29.47
-29.97
-25.58
-16.92
-6.29
3.64
10.68
14.12
14.82
14.15
13.16
11.93
9.81
6.19
1.35
-3.42
-6.28
-5.67
-1.10
6.43
15.22
23.17
28.89
32.04
33.07
33.00
32.43
31.37
29.23
25.37
19.72
13.00
6.59
1.85
-0.51
-0.70
0.04
0.44
-0.39
-2.56
-5.31
-7.83
-9.64
-10.97
-12.48
-14.75
-17.88
-21.44
-24.72
-27.27
-29.08
-30.71
-32.49
-34.36
-35.48
-34.62
-30.94
-24.39
-16.13
-7.97
-1.61
2.14
3.71
4.56
6.42
10.55
17.16
25.54
34.20
41.86
47.54
50.89
52.11
51.38
48.89
44.76
39.22
32.91
26.81
21.81
18.41
16.33
14.59
11.67
6.48
-1.50
-11.60
-22.19
-31.40
-37.53
-40.01
-39.31
-36.72
-33.58
-30.63
-27.90
-24.91
-21.28
-17.17
-13.11
-9.88
-7.59
-5.58
-2.67
2.50
10.32
20.17
30.52
39.68
46.61
51.29
54.57
57.43
60.26
62.49
62.51
58.78
50.31
37.48
21.98
5.97
-8.57
-20.69
-30.32
-37.98
-44.08
-48.62
-51.24
-51.55
-49.59
-45.91
-41.34
-36.81
-32.58
-28.27
-22.95
-15.37
-4.83
8.58
23.82
39.25
53.23
64.66
73.12
78.80
82.02
83.01
81.45
77.16
70.02
60.47
49.48
38.06
27.14
17.10
7.97
-0.31
-7.62
-13.53
-17.41
-18.85
-17.90
-15.35
-12.34
-10.23
-9.77
-11.00
-13.22
-15.20
-16.12
-15.73
-14.52
-13.20
-12.19
-11.21
-9.63
-6.91
-3.16
0.77
3.39
3.70
1.41
-2.73
-7.34
-11.30
-14.19
-16.64
-19.74
-24.30
-30.17
-36.08
-40.16
-40.78
-37.37
-30.74
-22.67
-15.38
-10.25
-7.63
-6.93
-6.97
-7.05
-7.09
-7.61
-9.00
-11.02
-12.66
-12.64
-10.28
-5.82
-0.62
3.33
4.55
2.53
-2.00
-7.37
-12.09
-15.22
-16.96
-18.17
-19.90
-22.69
-26.36
-30.06
-32.74
-33.67
-32.72
-30.22
-27.03
-23.74
-20.68
-17.76
-14.62
-11.23
-7.93
-5.46
-4.41
-4.90
-6.25
-7.34
-7.18
-5.37
-2.38
0.53
2.21
1.85
-0.48
-3.90
-7.42
-10.21
-12.21
-13.92
-16.08
-19.22
-23.31
-27.80
-31.84
-34.77
-36.37
-36.70
-36.17
-34.79
-32.33
-28.52
-23.20
-17.02
-11.16
-7.03
-5.42
-6.08
-7.71
-8.61
-7.52
-4.17
0.61
5.19
8.19
8.75
6.79
2.73
-3.15
-10.86
-20.60
-32.25
-44.99
-57.19
-66.87
-72.49
-73.61
-71.31
-67.85
-65.82
-67.35
-73.02
-81.76
-91.25
-98.50
-101.22
-98.26
-89.83
-76.96
-60.94
-42.84
-23.41
-3.43
16.04
33.67
47.90
57.84
63.48
65.98
67.41
69.77
74.39
81.22
89.07
96.10
100.72
102.20
100.85
97.67
93.75
89.56
85.01
79.34
72.01
62.79
51.90
39.91
27.12
13.57
-0.89
-16.10
-31.26
-44.79
-54.71
-59.31
-57.73
-50.28
-38.50
-24.30
-9.60
4.25
16.67
27.32
35.98
42.22
45.66
46.16
44.20
40.78
37.21
34.60
33.52
33.59
33.91
32.95
29.37
22.26
11.36
-2.52
-17.87
-32.54
-44.17
-50.59
-50.09
-41.89
-26.39
-5.38
18.19
40.56
57.71
66.60
65.67
55.64
39.36
20.95
4.80
-5.96
-10.04
-8.02
-1.71
6.82
15.93
24.70
32.73
39.62
45.01
48.34
49.57
49.17
47.96
46.88
45.99
44.67
41.93
37.37
31.78
26.98
24.96
26.61
31.12
36.37
39.72
39.63
36.06
30.31
24.16
18.56
13.50
8.08
1.48
-6.35
-14.61
-22.10
-27.92
-31.90
-34.51
-36.60
-38.53
-40.21
-40.88
-39.73
-36.55
-31.66
-26.27
-21.75
-19.16
-18.71
-19.72
-20.99
-21.38
-20.37
-18.28
-15.91
-14.35
-13.98
-14.57
-15.28
-14.94
-12.95
-9.25
-4.50
0.46
4.99
8.96
12.62
16.28
19.96
23.27
25.39
25.70
23.86
20.38
16.29
12.61
9.98
8.08
5.99
2.68
-2.16
-7.69
-12.14
-13.58
-10.96
-4.58
3.89
11.96
17.73
20.22
19.78
17.82
15.94
15.56
17.32
20.94
25.46
29.52
31.93
32.15
30.45
27.81
25.05
22.66
20.09
16.49
11.16
4.11
-3.62
-10.81
-16.53
-20.68
-23.74
-26.22
-28.15
-29.08
-28.44
-26.08
-22.53
-19.19
-17.35
-17.98
-21.24
-26.39
-32.31
-37.78
-41.84
-43.87
-43.51
-40.57
-35.15
-27.68
-18.94
-10.01
-2.15
3.71
6.99
7.91
7.31
6.29
6.06
7.18
9.77
13.39
17.55
21.90
26.36
30.91
35.36
39.24
41.96
42.89
42.06
39.99
37.61
35.92
35.23
35.19
34.97
33.79
31.43
28.37
25.54
23.75
23.34
23.98
24.72
24.58
22.76
19.30
15.16
12.00
11.77
15.61
23.25
32.76
41.19
45.78
44.97
38.99
29.36
18.12
6.90
-3.58
-13.00
-21.24
-27.88
-32.28
-34.27
-34.17
-32.95
-31.55
-30.45
-29.51
-28.36
-27.06
-26.47
-27.97
-32.87
-41.29
-52.01
-62.37
-69.41
-71.05
-66.73
-57.70
-46.17
-34.48
-24.18
-15.75
-8.89
-3.14
1.66
5.11
6.62
5.56
2.09
-3.03
-8.50
-12.92
-15.66
-16.80
-17.21
-17.78
-19.02
-20.72
-22.25
-23.10
-23.25
-23.32
-24.37
-27.14
-31.88
-38.06
-44.64
-50.86
-56.38
-61.68
-67.59
-74.72
-82.85
-90.68
-96.27
-97.89
-94.82
-87.95
-79.20
-71.05
-64.96
-61.05
-57.95
-53.56
-46.24
-35.49
-22.11
-7.65
6.33
19.10
30.65
41.39
51.53
60.64
67.65
71.51
71.73
68.96
64.79
60.90
58.48
57.43
56.82
55.28
51.97
46.86
40.67
34.52
29.33
25.66
23.79
23.57
24.99
27.87
31.86
36.53
41.07
44.68
46.70
46.82
45.24
42.60
39.64
37.03
35.06
33.73
32.69
31.59
30.13
28.17
25.79
22.93
19.65
15.89
11.71
7.25
2.83
-1.23
-4.74
-7.75
-10.62
-13.82
-17.69
-22.33
-27.23
-31.49
-34.01
-33.75
-30.32
-24.04
-15.95
-7.42
0.35
6.68
11.47
15.02
17.61
19.36
19.97
19.29
17.36
14.72
12.41
11.29
11.82
13.68
15.88
17.31
17.20
15.48
12.70
9.69
7.05
4.83
2.59
-0.45
-4.77
-10.25
-16.07
-20.82
-23.27
-22.77
-19.59
-14.76
-9.53
-4.83
-1.09
1.53
2.59
1.05
-4.64
-15.30
-30.23
-46.63
-60.27
-67.41
-66.46
-59.07
-49.40
-42.19
-40.63
-44.91
-52.58
-59.84
-63.34
-61.41
-54.17
-43.17
-30.49
-18.24
-8.27
-1.94
0.10
-1.47
-4.25
-4.21
3.04
20.25
46.64
77.22
104.14
119.61
118.99
102.77
76.03
46.09
19.41
-0.63
-14.04
-22.88
-29.18
-33.73
-35.92
-34.81
-30.17
-22.97
-15.06
-8.22
-3.42
-0.44
1.88
4.77
8.84
13.59
17.64
19.57
18.91
16.77
15.58
18.05
25.77
38.20
53.01
67.54
80.25
91.45
102.04
111.57
117.08
113.72
97.67
68.98
32.79
-2.30
-28.13
-40.69
-41.70
-37.04
-33.32
-34.35
-39.91
-46.70
-50.81
-50.12
-45.11
-38.26
-32.80
-31.37
-35.12
-43.62
-54.93
-65.95
-72.73
-71.21
-58.40
-33.81
-0.58
34.93
64.85
82.55
85.32
74.99
56.92
37.40
21.11
9.93
3.38
0.05
-1.09
-0.17
2.92
7.76
12.97
16.54
16.90
13.69
7.99
1.89
-2.62
-4.53
-4.15
-2.84
-2.27
-3.62
-7.10
-12.04
-17.29
-21.82
-25.19
-27.71
-30.29
-33.85
-38.78
-44.45
-49.22
-51.02
-48.20
-40.44
-29.06
-16.67
-6.16
0.50
2.96
2.46
1.06
0.58
1.93
4.82
8.16
10.70
11.40
9.74
5.63
-0.63
-8.25
-15.75
-20.81
-20.61
-12.72
3.65
26.82
52.64
75.67
90.98
95.85
90.40
77.09
59.21
39.49
19.41
-0.47
-19.57
-36.58
-49.39
-55.82
-54.65
-46.30
-32.81
-17.03
-1.69
11.37
21.50
28.94
34.21
37.64
39.18
38.50
35.41
30.04
22.97
14.96
6.64
-1.81
-10.55
-19.64
-28.40
-35.07
-37.06
-31.91
-18.64
1.48
24.87
46.76
62.75
70.27
69.09
60.94
48.38
33.80
18.85
4.56
-8.29
-18.79
-26.00
-29.25
-28.46
-24.27
-17.92
-10.75
-3.89
1.98
6.61
10.05
12.39
13.73
14.19
13.96
13.33
12.65
12.18
12.01
11.91
11.43
10.04
7.24
2.87
-2.87
-9.39
-15.88
-21.48
-25.59
-28.02
-28.92
-28.80
-28.29
-27.85
-27.58
-27.14
-25.78
-22.79
-17.80
-11.07
-3.40
4.28
11.25
17.36
22.90
28.33
33.81
39.13
43.66
46.67
47.61
46.17
42.29
36.14
28.12
18.97
9.77
1.83
-3.68
-6.10
-5.34
-2.02
2.86
8.18
13.00
16.73
19.14
20.22
20.04
18.54
15.60
11.09
5.08
-2.01
-9.43
-16.17
-21.40
-24.71
-26.31
-26.87
-27.14
-27.72
-28.73
-29.96
-31.07
-31.81
-32.16
-32.32
-32.47
-32.60
-32.43
-31.55
-29.54
-26.29
-21.99
-16.99
-11.76
-6.55
-1.55
3.16
7.38
10.75
12.74
12.77
10.42
5.56
-1.60
-10.47
-20.27
-29.99
-38.59
-45.07
-48.55
-48.42
-44.56
-37.32
-27.64
-16.79
-6.11
3.32
10.81
15.89
18.19
17.25
12.89
5.46
-3.92
-13.40
-21.13
-25.68
-26.50
-23.94
-18.84
-12.18
-4.76
2.95
10.55
17.56
23.33
27.21
28.79
28.30
26.65
25.25
25.31
27.22
30.15
32.38
32.19
28.87
23.21
17.23
13.23
12.55
15.09
19.33
23.20
24.80
23.10
18.04
10.24
0.62
-9.97
-20.76
-31.00
-39.79
-46.11
-48.91
-47.53
-42.09
-33.63
-23.93
-14.96
-8.25
-4.42
-3.07
-3.14
-3.53
-3.53
-3.11
-2.73
-2.98
-4.18
-6.27
-8.83
-11.29
-13.13
-13.97
-13.57
-11.77
-8.51
-3.83
1.97
8.42
14.82
20.34
24.28
26.09
25.64
23.09
18.96
13.98
8.97
4.66
1.54
-0.23
-0.80
-0.63
-0.26
-0.22
-0.88
-2.38
-4.66
-7.56
-10.94
-14.69
-18.72
-22.93
-27.16
-31.09
-34.28
-36.21
-36.42
-34.60
-30.84
-25.63
-19.84
-14.54
-10.67
-8.81
-8.94
-10.53
-12.70
-14.50
-15.25
-14.65
-12.83
-10.25
-7.50
-5.22
-3.85
-3.60
-4.36
-5.80
-7.51
-9.13
-10.58
-12.00
-13.71
-16.04
-19.12
-22.65
-25.86
-27.52
-26.19
-20.73
-10.82
2.74
18.10
32.86
45.00
53.51
58.69
61.80
64.36
67.55
71.85
77.18
83.11
89.24
95.18
100.50
104.64
106.97
106.92
104.19
98.82
91.17
81.81
71.38
60.43
49.24
37.80
25.71
12.42
-2.37
-18.26
-33.88
-47.07
-55.51
-57.58
-53.09
-43.53
-31.66
-20.64
-13.03
-10.15
-11.91
-17.26
-24.80
-33.34
-42.06
-50.43
-58.13
-65.00
-71.07
-76.44
-81.04
-84.29
-84.97
-81.56
-73.04
-59.65
-43.25
-26.83
-13.56
-5.73
-4.18
-8.41
-16.99
-28.05
-39.34
-48.34
-52.40
-49.36
-38.41
-20.60
1.37
23.91
43.63
58.12
66.16
67.48
62.49
52.15
38.12
22.75
8.72
-1.64
-7.04
-7.70
-5.04
-1.03
2.64
5.06
6.14
6.32
6.15
6.03
6.09
6.32
6.64
6.87
6.77
5.88
3.65
-0.30
-5.92
-12.47
-18.47
-22.22
-22.29
-18.16
-10.47
-0.81
8.91
17.08
22.90
26.46
28.56
30.30
32.69
36.33
41.19
46.53
50.97
52.82
50.67
43.85
32.83
19.04
4.34
-9.60
-21.85
-32.27
-41.16
-48.79
-55.00
-59.08
-60.19
-57.84
-52.33
-44.96
-37.67
-32.32
-29.92
-30.25
-31.85
-32.86
-31.80
-28.26
-23.10
-17.89
-14.38
-13.92
-17.21
-24.07
-33.14
-41.53
-45.09
-39.50
-22.15
6.08
40.22
72.52
95.21
103.55
97.42
80.80
59.38
37.99
19.08
2.97
-10.76
-21.92
-29.35
-31.53
-27.75
-18.70
-6.37
6.81
18.71
28.04
34.26
37.25
37.06
33.83
27.98
20.23
11.59
3.10
-4.47
-10.90
-16.48
-21.92
-28.01
-35.22
-43.57
-52.61
-61.69
-70.27
-78.07
-84.95
-90.71
-94.76
-96.20
-93.90
-86.50
-72.17
-48.77
-14.70
29.56
80.13
129.52
168.42
188.89
187.55
167.01
134.61
99.22
67.76
43.30
25.47
12.49
3.11
-2.57
-3.95
-1.28
3.54
7.31
6.92
0.80
-10.47
-24.37
-37.68
-47.98
-54.54
-58.26
-60.91
-64.00
-67.96
-71.94
-74.36
-73.80
-69.69
-62.68
-54.20
-45.82
-38.69
-33.35
-30.00
-28.59
-28.50
-27.85
-23.31
-10.88
11.98
44.29
80.70
112.81
132.41
134.87
120.87
95.68
66.34
38.64
15.49
-2.78
-16.80
-26.65
-31.43
-30.10
-22.64
-10.72
2.57
13.69
19.92
20.17
15.19
7.05
-1.86
-9.71
-15.81
-20.52
-24.80
-29.39
-34.39
-39.06
-42.26
-43.03
-41.03
-36.79
-31.49
-26.50
-22.84
-20.88
-20.42
-20.95
-22.01
-23.16
-23.87
-23.30
-20.43
-14.53
-5.81
4.22
13.12
18.47
18.98
15.11
8.85
2.66
-1.64
-3.49
-3.51
-2.75
-1.93
-1.03
0.45
2.94
6.34
9.78
12.05
12.13
9.71
5.34
0.14
-4.73
-8.54
-11.25
-13.37
-15.65
-18.60
-22.30
-26.37
-30.13
-32.95
-34.45
-34.58
-33.50
-31.49
-28.73
-25.35
-21.48
-17.31
-13.02
-8.51
-3.32
3.39
12.37
23.64
36.07
47.40
54.93
56.70
52.36
43.46
32.75
23.02
15.97
11.79
9.46
7.68
5.67
3.45
1.47
0.05
-1.09
-2.81
-5.98
-10.93
-17.02
-22.87
-26.89
-27.99
-26.09
-22.07
-17.43
-13.60
-11.43
-10.94
-11.53
-12.42
-13.03
-13.28
-13.44
-13.87
-14.79
-16.05
-17.25
-17.93
-17.69
-16.30
-13.78
-10.31
-6.27
-2.19
1.26
3.41
3.75
2.05
-1.51
-6.36
-11.52
-15.86
-18.21
-17.66
-13.84
-7.01
2.00
11.97
21.60
29.76
35.64
38.77
39.05
36.73
32.45
27.12
21.70
17.04
13.62
11.57
10.74
10.86
11.72
13.22
15.31
17.91
20.83
23.77
26.35
28.23
29.18
29.17
28.41
27.29
26.25
25.65
25.55
25.69
25.55
24.53
22.21
18.49
13.65
8.11
2.26
-3.78
-10.16
-17.05
-24.37
-31.52
-37.39
-40.76
-40.74
-37.18
-30.81
-22.97
-15.22
-8.75
-4.15
-1.32
0.28
1.36
2.52
4.16
6.59
10.08
14.96
21.48
29.56
38.67
47.75
55.48
60.68
62.77
62.02
59.46
56.42
53.98
52.63
52.12
52.05
52.41
53.88
57.74
65.08
75.76
87.89
98.47
104.77
105.75
102.31
96.18
88.24
77.58
62.05
40.09
12.57
-16.81
-42.84
-61.07
-69.67
-69.74
-64.14
-55.65
-45.91
-35.37
-24.25
-13.29
-3.82
2.86
6.33
7.10
6.40
5.51
4.98
4.63
3.94
2.69
1.38
1.08
2.69
6.07
9.57
10.48
6.12
-4.92
-22.00
-42.58
-62.95
-79.24
-88.23
-87.90
-77.69
-58.58
-33.10
-5.00
21.36
41.89
53.66
55.47
47.80
32.48
12.07
-10.76
-33.50
-53.99
-70.99
-84.49
-95.93
-107.69
-121.97
-139.20
-157.19
-171.44
-176.80
-169.86
-150.78
-123.65
-95.01
-71.40
-56.82
-51.60
-52.66
-55.16
-54.47
-47.55
-33.65
-13.95
9.21
33.19
55.77
75.50
91.58
103.68
111.82
116.31
117.88
117.57
116.52
115.55
114.73
113.40
110.51
105.29
97.69
88.50
78.99
70.32
63.16
57.54
53.01
49.01
45.14
41.25
37.46
34.16
31.79
30.78
31.29
33.11
35.58
37.76
38.69
37.59
34.15
28.52
21.34
13.45
5.64
-1.67
-8.53
-15.39
-22.86
-31.32
-40.69
-50.43
-59.80
-68.11
-75.07
-80.76
-85.52
-89.73
-93.61
-97.08
-99.81
-101.26
-100.91
-98.34
-93.53
-86.79
-78.75
-70.20
-61.94
-54.55
-48.42
-43.68
-40.25
-37.93
-36.36
-35.14
-33.86
-32.26
-30.22
-27.82
-25.22
-22.68
-20.41
-18.50
-16.94
-15.64
-14.46
-13.27
-12.08
-11.04
-10.46
-10.64
-11.69
-13.37
-15.00
-15.61
-14.30
-10.61
-4.80
2.22
9.15
14.80
18.50
20.25
20.59
20.20
19.63
19.07
18.42
17.50
16.20
14.53
12.65
10.69
8.79
7.05
5.63
4.70
4.45
4.90
5.83
6.68
6.68
5.13
1.70
-3.26
-8.76
-13.38
-15.78
-15.12
-11.34
-5.08
2.60
10.56
17.92
24.07
28.58
31.15
31.61
30.06
27.02
23.30
19.84
17.34
16.05
15.67
15.66
15.40
14.56
13.11
11.35
9.63
8.37
7.88
8.26
9.53
11.52
13.94
16.32
18.11
18.70
17.72
15.10
11.25
6.94
2.94
-0.13
-2.10
-3.11
-3.39
-3.03
-1.89
0.29
3.59
7.74
12.18
16.25
19.55
21.96
23.57
24.46
24.45
23.11
19.95
14.79
7.83
-0.19
-8.43
-16.21
-23.32
-29.99
-36.75
-43.99
-51.66
-59.12
-65.26
-68.78
-68.72
-64.77
-57.47
-48.06
-38.07
-28.95
-21.67
-16.52
-13.29
-11.40
-10.20
-9.13
-7.81
-5.97
-3.42
-0.00
4.29
9.30
14.65
19.85
24.41
28.04
30.67
32.48
33.73
34.46
34.51
33.41
30.67
25.93
19.26
11.18
2.67
-4.99
-10.51
-12.82
-11.34
-6.19
1.83
11.36
20.85
28.86
34.46
37.31
37.71
36.35
33.99
31.31
28.71
26.46
24.70
23.60
23.24
23.50
24.08
24.50
24.38
23.55
22.13
20.38
18.47
16.40
13.97
11.07
7.81
4.58
1.85
-0.15
-1.60
-3.04
-5.06
-7.97
-11.42
-14.53
-16.19
-15.58
-12.56
-7.80
-2.58
1.71
4.04
3.98
1.65
-2.41
-7.61
-13.44
-19.32
-24.68
-28.76
-30.90
-30.74
-28.40
-24.55
-20.10
-15.94
-12.60
-10.15
-8.33
-6.75
-5.15
-3.53
-2.07
-1.06
-0.79
-1.35
-2.64
-4.31
-5.89
-7.01
-7.55
-7.78
-8.25
-9.53
-12.02
-15.69
-20.07
-24.33
-27.52
-28.78
-27.60
-23.85
-17.91
-10.53
-2.73
4.52
10.47
14.78
17.54
19.14
20.06
20.69
21.21
21.69
22.10
22.46
22.85
23.33
23.86
24.22
24.16
23.45
22.13
20.45
18.79
17.45
16.53
15.86
15.18
14.31
13.19
11.91
10.57
9.21
7.79
6.25
4.50
2.50
0.25
-2.11
-4.13
-5.12
-4.29
-1.06
4.54
11.74
19.25
25.69
30.21
32.68
33.63
33.76
33.52
32.95
31.85
30.14
28.10
26.30
25.24
25.04
25.20
24.96
23.61
20.91
17.16
12.97
8.88
5.13
1.57
-2.10
-6.06
-10.30
-14.53
-18.44
-21.84
-24.81
-27.70
-30.94
-34.85
-39.48
-44.48
-49.13
-52.55
-53.98
-52.96
-49.48
-43.95
-37.07
-29.67
-22.54
-16.33
-11.49
-8.25
-6.58
-6.24
-6.77
-7.67
-8.37
-8.45
-7.68
-6.14
-4.25
-2.69
-2.37
-4.11
-8.38
-15.08
-23.33
-31.77
-38.79
-43.00
-43.59
-40.51
-34.35
-26.15
-17.12
-8.43
-1.10
4.14
6.98
7.52
6.22
3.84
1.15
-1.14
-2.59
-2.99
-2.37
-0.92
1.07
3.31
5.59
7.81
9.96
12.08
14.21
16.33
18.48
20.74
23.31
26.27
29.59
32.99
36.04
38.25
39.30
39.03
37.46
34.68
30.85
26.16
20.90
15.36
9.75
4.11
-1.73
-8.08
-15.16
-22.98
-31.27
-39.48
-46.89
-52.72
-56.25
-56.92
-54.54
-49.40
-42.30
-34.41
-26.91
-20.79
-16.43
-13.75
-12.39
-11.95
-12.13
-12.84
-13.93
-15.22
-16.49
-17.55
-18.39
-19.18
-20.20
-21.64
-23.57
-25.88
-28.36
-30.76
-32.91
-34.68
-35.99
-36.86
-37.42
-37.91
-38.68
-40.08
-42.30
-45.21
-48.32
-50.80
-51.67
-50.10
-45.68
-38.64
-29.80
-20.32
-11.41
-3.95
1.71
5.67
8.23
9.75
10.48
10.63
10.50
10.50
11.12
12.67
15.06
17.79
20.09
21.18
20.64
18.52
15.33
11.78
8.51
5.88
3.85
2.11
0.21
-2.25
-5.52
-9.65
-14.45
-19.47
-24.08
-27.43
-28.70
-27.25
-22.94
-16.19
-7.90
0.78
8.77
15.27
19.95
22.88
24.36
24.88
24.87
24.61
24.26
23.88
23.54
23.38
23.54
23.97
24.38
24.23
23.00
20.47
16.95
13.14
9.81
7.40
5.85
4.76
3.60
2.03
-0.08
-2.76
-6.09
-10.13
-14.68
-19.09
-22.23
-22.84
-20.06
-13.90
-5.35
3.96
12.37
18.78
22.86
25.00
25.89
26.15
26.15
25.93
25.52
24.96
24.47
24.25
24.41
24.81
25.16
25.09
24.39
23.04
21.22
19.28
17.53
16.18
15.24
14.53
13.74
12.52
10.62
7.96
4.62
0.73
-3.46
-7.62
-11.19
-13.38
-13.32
-10.35
-4.42
3.76
12.89
21.46
28.34
33.04
35.75
37.01
37.47
37.50
37.30
37.01
36.81
37.00
37.87
39.50
41.56
43.47
44.54
44.32
42.80
40.31
37.37
34.40
31.53
28.67
25.61
22.20
18.37
14.20
9.68
4.74
-0.72
-6.73
-13.00
-18.90
-23.58
-26.09
-25.77
-22.55
-17.02
-10.39
-4.00
1.09
4.44
6.26
7.15
7.72
8.30
8.88
9.35
9.67
10.02
10.71
12.02
14.04
16.50
18.97
20.96
22.13
22.42
22.05
21.35
20.60
19.94
19.34
18.68
17.88
17.01
16.19
15.58
15.21
14.93
14.47
13.62
12.35
10.97
9.99
9.96
11.30
14.17
18.48
23.95
30.22
36.83
43.16
48.47
52.06
53.50
52.89
50.88
48.53
46.87
46.60
47.85
50.24
53.02
55.34
56.41
55.67
52.89
48.19
41.96
34.74
26.99
19.04
11.08
3.22
-4.36
-11.40
-17.50
-22.29
-25.43
-26.78
-26.52
-25.31
-24.27
-24.72
-27.64
-33.04
-39.75
-45.60
-48.29
-46.28
-39.46
-29.11
-17.33
-6.11
3.26
10.56
16.43
21.59
26.45
30.66
33.52
34.51
34.17
34.40
38.15
48.31
66.38
91.27
119.46
145.69
164.74
173.03
169.41
155.27
133.43
107.10
78.91
50.71
23.70
-1.25
-23.34
-41.99
-57.08
-68.97
-78.60
-86.68
-93.45
-98.43
-100.49
-98.88
-93.70
-86.10
-77.75
-69.99
-63.21
-56.88
-50.24
-42.91
-35.35
-28.81
-24.21
-21.83
-20.83
-19.69
-17.22
-12.95
-7.59
-2.39
1.35
3.00
2.84
1.72
0.62
0.03
-0.40
-1.55
-4.69
-10.37
-18.32
-27.46
-36.16
-43.24
-48.22
-51.30
-52.85
-52.75
-50.31
-44.58
-35.19
-22.91
-9.70
1.65
8.91
10.97
8.38
3.04
-2.94
-7.92
-11.38
-13.61
-15.13
-16.00
-15.71
-13.45
-8.81
-2.31
4.43
9.45
10.81
7.80
0.97
-8.19
-17.86
-26.93
-35.33
-43.89
-53.45
-64.20
-75.34
-85.52
-93.60
-99.36
-103.47
-107.22
-111.32
-115.65
-119.14
-120.36
-118.43
-113.23
-105.19
-94.72
-81.73
-65.73
-46.40
-24.13
-0.25
23.41
44.99
63.53
78.76
91.33
102.13
111.67
119.98
126.28
129.42
128.28
122.54
112.84
100.75
88.00
75.70
63.86
51.57
37.59
21.56
4.33
-12.10
-25.44
-34.18
-38.10
-38.24
-36.14
-33.05
-29.55
-25.53
-20.81
-15.48
-10.14
-5.78
-3.14
-2.60
-3.72
-5.47
-6.74
-6.59
-4.92
-2.29
0.24
1.71
1.74
0.73
-0.48
-1.00
-0.55
0.55
1.26
0.63
-1.91
-6.17
-11.27
-16.25
-20.24
-22.95
-24.38
-24.65
-23.75
-21.55
-17.97
-13.31
-8.28
-3.82
-0.65
0.88
1.12
0.76
0.44
0.60
1.06
1.46
1.38
0.66
-0.47
-1.62
-2.41
-2.76
-2.85
-3.06
-3.89
-5.49
-7.88
-10.71
-13.40
-15.56
-17.02
-18.05
-19.11
-20.59
-22.39
-23.95
-24.40
-22.98
-19.49
-14.42
-8.71
-3.46
0.68
3.63
5.74
7.49
9.03
10.17
10.44
9.60
7.84
5.88
4.64
4.69
6.04
8.03
9.46
9.38
7.37
3.87
-0.04
-3.29
-5.17
-5.82
-5.97
-6.56
-8.26
-11.08
-14.43
-17.42
-19.18
-19.32
-17.92
-15.46
-12.45
-9.17
-5.70
-1.89
2.15
6.09
9.36
11.45
12.21
11.96
11.31
10.82
10.74
10.91
10.83
10.22
8.95
7.33
5.86
4.79
4.15
3.55
2.53
0.84
-1.37
-3.54
-5.07
-5.60
-5.33
-5.03
-5.59
-7.69
-11.21
-15.23
-18.42
-19.42
-17.77
-13.89
-9.01
-4.52
-1.19
0.98
2.63
4.46
6.65
8.72
9.72
9.11
6.99
4.27
2.27
1.77
2.82
4.61
5.98
6.05
4.73
2.57
0.41
-1.09
-1.81
-2.26
-3.14
-5.10
-8.28
-12.23
-16.25
-19.53
-21.73
-22.80
-22.96
-22.37
-20.86
-18.07
-13.76
-8.12
-1.90
3.83
7.97
10.03
10.18
9.11
7.84
6.96
6.68
6.71
6.60
6.05
5.14
4.20
3.62
3.53
3.74
3.66
2.81
0.91
-1.77
-4.62
-6.95
-8.38
-9.18
-10.10
-11.98
-15.30
-19.75
-24.25
-27.45
-28.22
-26.20
-21.85
-16.34
-10.78
-5.97
-2.12
1.04
3.74
6.11
7.96
9.05
9.48
9.61
10.05
11.24
13.18
15.44
17.13
17.60
16.51
14.24
11.54
9.18
7.67
6.83
6.07
4.72
2.46
-0.52
-3.45
-5.60
-6.53
-6.44
-6.05
-6.37
-8.01
-10.93
-14.31
-16.78
-17.22
-15.06
-10.72
-5.26
0.11
4.72
8.57
12.16
16.08
20.46
24.78
28.29
30.27
30.71
30.28
29.95
30.58
32.25
34.33
35.83
36.04
34.95
33.24
31.73
30.68
29.53
27.03
21.87
13.62
3.04
-8.16
-17.90
-24.75
-28.02
-27.83
-24.46
-18.04
-8.53
3.63
17.15
29.90
39.49
44.17
43.71
39.48
33.92
29.50
27.67
28.61
31.21
33.86
35.21
34.56
31.92
27.74
22.52
16.55
9.87
2.48
-5.67
-14.33
-23.20
-32.02
-40.72
-49.68
-59.30
-69.94
-81.40
-92.97
-103.49
-111.97
-118.06
-122.33
-126.15
-131.29
-139.06
-149.52
-161.02
-170.37
-173.98
-169.22
-155.70
-135.51
-112.36
-89.95
-70.54
-54.46
-40.60
-27.57
-14.73
-2.32
8.91
18.60
27.15
35.59
45.08
56.16
68.63
81.55
93.59
103.24
109.16
110.27
105.88
95.73
80.11
59.89
36.67
12.78
-9.11
-26.56
-38.27
-44.46
-46.79
-47.57
-48.69
-50.92
-53.60
-55.22
-54.16
-49.32
-40.45
-27.95
-12.69
4.22
21.62
38.45
53.90
67.57
79.51
90.04
99.59
108.47
116.88
124.92
132.62
139.76
145.69
149.19
148.75
143.20
132.36
117.51
101.01
85.64
73.42
65.05
59.82
56.16
52.28
46.50
37.48
24.15
5.98
-16.61
-42.02
-67.43
-89.62
-105.87
-114.93
-117.58
-115.93
-112.59
-109.61
-107.65
-106.11
-103.64
-98.85
-91.13
-80.69
-68.54
-55.96
-44.10
-33.72
-25.16
-18.54
-13.90
-11.23
-10.40
-11.19
-13.05
-15.41
-17.78
-19.76
-21.34
-22.59
-23.82
-25.33
-27.27
-29.61
-31.92
-33.39
-33.39
-31.46
-27.71
-22.75
-17.30
-12.05
-7.31
-3.13
0.49
3.59
5.98
7.59
8.41
8.56
8.36
8.08
7.88
7.79
7.73
7.49
6.96
6.04
4.75
3.23
1.67
0.17
-1.37
-3.30
-5.97
-9.62
-14.22
-19.27
-24.13
-27.98
-30.21
-30.35
-28.26
-24.10
-18.31
-11.66
-4.95
0.99
5.66
8.90
10.83
11.82
12.25
12.41
12.61
12.95
13.52
14.26
15.08
15.92
16.63
17.09
17.23
16.81
15.83
14.26
12.25
10.14
8.17
6.51
4.95
2.96
-0.07
-4.50
-10.22
-16.32
-21.50
-24.37
-24.00
-20.34
-14.23
-6.92
0.25
6.54
11.85
16.42
20.63
24.50
27.75
30.03
31.19
31.60
31.80
32.38
33.60
35.13
36.37
36.61
35.51
33.19
30.09
26.84
23.80
21.03
18.25
15.22
11.94
8.78
6.14
4.12
2.21
-0.52
-5.11
-11.83
-19.93
-27.66
-32.73
-33.55
-29.54
-21.70
-11.94
-2.36
5.64
11.68
16.17
19.84
23.06
25.77
27.53
27.99
27.33
26.07
25.02
24.74
25.17
25.81
25.82
24.57
21.93
18.19
14.05
10.16
6.93
4.45
2.30
0.11
-2.46
-5.45
-8.51
-11.53
-14.58
-18.05
-22.33
-27.21
-31.71
-34.30
-33.45
-28.50
-20.09
-9.89
-0.04
7.72
12.68
15.09
15.89
16.10
16.34
16.73
17.15
17.41
17.66
18.22
19.47
21.46
23.77
25.68
26.29
25.14
22.32
18.48
14.50
11.05
8.32
6.06
3.86
1.47
-1.01
-3.31
-5.26
-6.98
-9.00
-12.02
-16.39
-21.97
-27.68
-31.94
-33.17
-30.21
-23.16
-13.26
-2.48
7.13
14.28
18.81
21.45
23.33
25.20
27.21
28.99
30.07
30.32
30.18
30.26
31.08
32.56
34.09
34.82
34.10
31.85
28.61
25.07
21.75
18.78
15.83
12.57
8.84
4.90
1.19
-2.03
-4.72
-7.33
-10.46
-14.60
-19.82
-25.53
-30.58
-33.49
-32.95
-28.33
-20.07
-9.64
0.98
9.95
16.30
20.04
21.91
22.77
23.25
23.51
23.60
23.52
23.39
23.43
23.62
23.89
23.92
23.53
22.58
21.15
19.39
17.40
15.19
12.57
9.38
5.52
1.18
-3.20
-7.05
-9.87
-11.58
-12.51
-13.29
-14.79
-17.58
-21.88
-27.39
-33.19
-38.14
-40.96
-40.61
-36.69
-29.37
-19.53
-8.47
2.52
12.27
20.11
25.68
29.09
30.63
30.87
30.50
30.12
30.19
30.82
31.85
32.84
33.40
33.25
32.24
30.44
27.83
24.42
20.16
14.99
9.11
2.79
-3.55
-9.47
-14.67
-19.08
-22.81
-26.25
-29.90
-34.25
-39.66
-46.10
-53.15
-59.99
-65.70
-69.42
-70.73
-69.59
-66.28
-61.24
-54.92
-47.72
-40.06
-32.52
-25.82
-20.80
-18.20
-18.38
-20.98
-24.94
-28.65
-30.48
-29.29
-24.89
-17.99
-9.97
-2.24
4.21
9.12
12.86
16.14
19.55
23.38
27.56
31.75
35.50
38.28
39.80
40.15
40.19
41.51
45.88
54.37
66.33
79.20
89.33
93.54
90.65
81.98
70.54
59.49
50.64
44.10
38.85
34.01
29.42
25.68
23.38
22.28
21.30
18.90
14.00
6.61
-2.13
-10.65
-17.60
-22.51
-25.82
-28.64
-31.97
-36.35
-41.58
-46.88
-51.40
-54.59
-56.60
-58.18
-60.27
-63.47
-67.56
-71.46
-73.49
-72.11
-66.51
-57.02
-45.04
-32.45
-21.08
-12.06
-5.59
-1.21
1.98
4.76
7.61
10.60
13.49
15.87
17.44
18.19
18.42
18.60
19.25
20.63
22.57
24.65
26.33
27.19
27.10
26.23
24.83
23.17
21.77
21.84
25.25
33.79
47.82
65.08
80.92
90.03
88.95
78.02
61.38
44.81
32.95
27.20
25.79
25.71
24.91
23.51
23.18
25.57
30.75
37.07
42.18
44.45
43.76
41.46
39.39
38.79
39.55
40.30
39.04
34.03
24.46
10.70
-5.89
-23.48
-40.25
-54.67
-65.95
-74.01
-79.53
-83.63
-87.16
-90.44
-92.79
-93.02
-90.05
-83.62
-74.60
-64.74
-55.98
-49.70
-46.35
-45.56
-46.39
-47.81
-48.85
-48.68
-46.79
-43.10
-38.09
-32.63
-27.62
-23.53
-20.19
-16.97
-13.21
-8.40
-2.53
4.30
11.87
19.96
27.96
34.73
39.17
40.60
39.46
36.80
33.64
30.14
25.55
18.93
10.18
0.53
-7.89
-13.40
-15.70
-16.15
-16.79
-18.96
-22.62
-26.46
-29.00
-29.63
-28.89
-28.00
-27.99
-29.13
-31.11
-33.12
-34.52
-34.98
-34.61
-33.58
-32.09
-30.24
-28.08
-25.95
-24.34
-24.15
-26.19
-30.94
-38.20
-47.15
-56.55
-65.18
-72.10
-76.94
-79.64
-80.40
-79.34
-76.38
-71.52
-64.82
-56.71
-47.81
-38.66
-29.39
-19.55
-8.15
5.90
23.21
43.46
65.30
86.70
105.83
121.75
134.75
146.00
156.70
167.30
177.27
185.40
190.62
192.57
191.92
189.85
187.45
185.42
183.72
181.96
179.61
175.88
169.58
159.04
143.05
121.53
96.17
69.81
45.30
24.19
6.30
-9.56
-24.31
-37.73
-48.64
-56.03
-60.22
-63.25
-67.97
-76.51
-89.20
-104.41
-119.55
-132.22
-141.01
-145.61
-146.29
-143.44
-137.37
-127.93
-114.84
-97.75
-76.61
-51.83
-24.58
3.03
28.13
47.54
58.59
59.86
51.78
36.54
17.47
-1.90
-18.83
-31.86
-40.75
-46.11
-48.86
-50.03
-50.74
-52.13
-55.57
-62.05
-71.85
-84.06
-96.55
-106.55
-111.48
-109.79
-101.29
-86.94
-68.39
-47.16
-24.53
-1.51
20.80
40.96
57.57
69.73
77.63
82.67
86.81
91.72
98.01
105.03
111.19
114.91
115.41
113.01
109.08
105.45
104.11
106.90
114.56
126.06
137.83
144.17
139.07
118.93
84.63
41.92
-0.58
-34.81
-56.34
-65.40
-65.77
-61.97
-57.02
-51.85
-46.02
-39.58
-33.74
-30.51
-31.37
-36.28
-43.51
-50.42
-54.86
-56.24
-55.54
-54.91
-56.20
-60.26
-66.61
-73.62
-79.52
-83.14
-84.36
-84.05
-83.58
-84.33
-87.18
-92.29
-99.00
-105.84
-110.95
-112.29
-108.37
-98.66
-83.91
-66.16
-48.03
-32.05
-19.76
-11.41
-6.09
-2.27
1.63
6.81
13.99
23.36
34.64
47.01
59.44
70.76
80.05
86.96
91.63
94.65
96.64
97.91
98.24
96.82
92.83
86.16
77.75
69.48
63.09
59.34
57.33
55.17
51.24
45.26
38.70
33.76
31.93
33.03
35.36
36.76
36.05
33.49
30.33
27.72
25.86
24.06
21.49
17.99
14.25
11.66
11.41
14.00
18.97
25.17
31.27
36.09
38.89
39.35
37.56
33.81
28.26
21.17
12.56
2.51
-8.73
-20.84
-33.26
-45.31
-56.31
-65.52
-72.24
-75.90
-76.12
-72.90
-66.78
-58.89
-50.67
-43.73
-39.09
-36.99
-36.77
-36.98
-36.22
-33.50
-28.70
-22.37
-15.41
-8.65
-2.64
2.06
4.67
4.36
0.68
-5.53
-12.15
-16.50
-16.54
-12.24
-5.63
0.18
2.69
1.38
-2.04
-4.74
-4.34
-0.20
6.40
13.04
17.44
18.28
15.58
10.26
3.47
-3.70
-10.76
-17.52
-23.96
-29.83
-34.51
-37.20
-37.23
-34.43
-29.26
-22.74
-16.21
-10.83
-7.31
-5.71
-5.42
-5.52
-5.10
-3.70
-1.35
1.41
4.02
6.12
7.47
7.76
6.57
3.54
-1.01
-6.09
-10.20
-12.11
-11.76
-10.19
-9.22
-10.22
-13.40
-17.67
-21.36
-23.18
-22.81
-20.98
-18.76
-16.96
-15.91
-15.37
-14.96
-14.35
-13.36
-12.11
-10.99
-10.55
-11.15
-12.64
-14.24
-14.66
-12.57
-7.34
0.73
10.27
19.48
26.75
31.41
33.75
34.69
35.50
37.26
40.82
46.42
53.46
60.35
64.74
64.30
57.73
45.59
30.22
14.70
1.66
-7.88
-14.38
-19.04
-22.91
-26.15
-28.43
-29.59
-30.12
-31.08
-33.45
-37.35
-41.92
-45.48
-46.42
-43.92
-38.31
-30.85
-23.05
-16.17
-10.90
-7.72
-7.15
-9.71
-15.24
-22.21
-27.49
-27.48
-20.01
-5.88
10.80
24.09
29.18
24.45
12.25
-2.42
-14.69
-21.83
-24.04
-23.32
-21.77
-20.15
-17.96
-14.32
-8.98
-2.77
2.73
6.25
7.40
6.94
6.30
6.77
8.81
11.70
13.84
13.13
8.03
-1.78
-14.52
-26.35
-32.93
-31.74
-23.80
-14.02
-8.76
-12.83
-26.98
-47.37
-67.97
-83.46
-91.71
-93.86
-92.61
-89.93
-85.91
-79.31
-69.10
-55.77
-41.61
-29.43
-21.34
-17.82
-17.78
-19.24
-20.18
-19.40
-16.43
-11.47
-4.41
5.22
18.07
34.29
52.88
71.43
86.78
96.05
98.05
93.73
85.63
76.66
68.57
61.55
54.38
45.75
35.34
24.29
14.69
8.58
6.87
9.10
13.77
19.30
24.60
29.51
34.50
40.00
46.12
52.17
57.16
60.16
60.85
59.81
58.30
57.66
58.54
60.62
62.67
63.07
60.79
55.76
48.88
41.35
33.72
25.50
15.37
1.97
-15.11
-34.93
-55.53
-74.71
-90.88
-103.34
-112.25
-117.83
-120.27
-119.50
-115.45
-108.58
-99.73
-90.24
-81.42
-74.36
-69.54
-66.92
-65.95
-65.91
-66.15
-66.20
-65.83
-64.85
-62.78
-58.84
-52.07
-41.64
-27.49
-10.45
7.85
25.53
41.13
54.02
64.43
72.98
80.26
86.42
91.06
93.69
93.91
91.82
87.99
83.17
78.20
73.61
69.77
66.70
64.23
61.89
59.19
55.74
51.49
46.73
41.88
37.08
32.33
27.44
22.34
17.48
13.44
10.69
9.12
8.00
6.27
3.12
-1.56
-7.20
-12.76
-17.39
-20.73
-22.97
-24.68
-26.51
-28.95
-32.27
-36.61
-41.80
-47.36
-52.36
-55.54
-55.74
-52.37
-45.79
-37.37
-29.03
-22.54
-19.04
-18.55
-20.34
-23.36
-26.62
-29.53
-31.67
-32.69
-32.11
-29.45
-24.58
-17.95
-10.62
-3.96
0.88
3.27
3.43
2.12
0.31
-1.18
-1.91
-1.79
-1.23
-0.86
-1.49
-3.72
-7.64
-12.62
-17.44
-20.70
-21.29
-18.72
-13.17
-5.11
4.92
16.35
28.54
40.45
50.80
58.33
62.29
62.57
59.63
54.14
46.80
38.36
29.76
22.08
16.28
12.74
11.06
10.26
9.22
7.33
4.61
1.52
-1.58
-4.86
-8.98
-14.70
-22.34
-31.42
-40.74
-48.70
-53.82
-54.94
-51.48
-43.43
-31.23
-16.02
0.64
16.90
31.15
42.44
50.70
56.64
61.18
65.13
68.85
72.24
75.18
77.58
79.59
81.39
82.96
84.03
84.03
82.32
78.48
72.47
64.63
55.57
45.75
35.44
24.42
12.39
-1.03
-15.64
-30.80
-45.52
-58.59
-69.39
-77.71
-83.69
-87.22
-87.71
-84.17
-75.80
-62.71
-46.19
-28.44
-12.06
1.11
10.18
15.36
17.44
17.18
15.00
11.12
5.82
-0.31
-6.41
-11.75
-15.97
-19.34
-22.52
-26.32
-31.22
-37.31
-44.05
-50.69
-56.60
-61.40
-65.34
-69.04
-73.31
-78.68
-85.20
-92.31
-98.80
-103.14
-103.63
-98.66
-87.25
-69.05
-44.66
-15.50
16.52
49.19
80.33
107.83
129.82
144.93
152.60
153.45
149.16
142.01
134.11
126.74
120.08
113.25
105.19
95.11
82.92
69.31
55.17
41.28
27.90
14.87
1.82
-11.48
-25.03
-38.56
-51.84
-64.69
-77.34
-89.61
-101.00
-110.08
-114.69
-112.90
-103.63
-87.67
-67.67
-47.39
-30.23
-17.93
-10.00
-4.35
1.24
7.84
14.90
20.75
24.14
25.13
25.11
26.14
29.27
34.05
38.65
41.05
40.21
36.60
31.69
26.99
23.13
19.68
15.31
8.97
0.24
-10.16
-20.62
-29.52
-35.66
-38.86
-39.66
-38.84
-36.66
-32.64
-25.74
-15.15
-0.98
15.20
30.91
43.35
50.73
52.75
50.38
45.48
39.53
33.34
26.96
20.18
13.06
6.04
-0.31
-5.84
-10.93
-16.43
-23.28
-31.55
-40.34
-47.80
-51.73
-50.89
-45.52
-37.62
-30.22
-26.18
-27.01
-32.28
-39.77
-46.47
-49.56
-47.39
-39.60
-27.06
-11.20
6.26
23.58
39.30
52.12
61.24
66.44
68.13
67.19
64.58
61.06
56.97
52.35
47.30
41.95
36.91
32.79
30.03
28.74
28.29
27.78
26.14
22.69
17.45
11.09
4.66
-0.90
-5.18
-8.41
-11.38
-14.95
-19.85
-26.08
-32.97
-39.31
-43.54
-44.52
-41.65
-35.27
-26.38
-16.31
-6.26
2.91
10.63
16.51
20.24
21.46
20.27
17.24
13.43
10.14
8.29
8.14
9.17
10.51
11.37
11.36
10.56
9.21
7.56
5.65
3.37
0.66
-2.46
-5.74
-8.82
-11.47
-13.63
-15.69
-18.25
-21.96
-27.25
-34.01
-41.47
-48.30
-52.80
-53.43
-49.27
-40.42
-28.02
-13.92
-0.10
11.91
21.34
28.16
32.74
35.58
37.05
37.38
36.82
35.70
34.55
33.84
33.82
34.37
35.03
35.18
34.36
32.37
29.41
25.79
21.84
17.77
13.65
9.53
5.51
1.74
-1.66
-4.69
-7.55
-10.61
-14.26
-18.81
-24.38
-30.80
-37.59
-43.88
-48.52
-50.20
-47.93
-41.37
-31.09
-18.52
-5.63
5.71
14.22
19.51
22.02
22.62
22.27
21.64
21.09
20.71
20.54
20.61
20.96
21.63
22.46
23.21
23.45
22.85
21.20
18.53
15.03
10.91
6.42
1.74
-2.99
-7.67
-12.32
-17.13
-22.46
-28.81
-36.56
-45.71
-55.74
-65.53
-73.63
-78.62
-79.53
-76.15
-69.04
-59.26
-47.98
-36.18
-24.49
-13.20
-2.47
7.54
16.65
24.70
31.71
37.89
43.60
49.12
54.54
59.65
64.02
67.12
68.39
67.51
64.44
59.50
53.45
47.09
41.06
35.47
29.85
23.38
15.31
5.43
-5.78
-17.06
-26.80
-33.49
-36.14
-34.69
-29.98
-23.47
-16.81
-11.19
-7.08
-4.23
-2.13
-0.49
0.49
0.14
-2.05
-5.99
-10.82
-15.09
-17.68
-18.20
-17.30
-16.22
-16.12
-17.44
-19.80
-22.27
-23.82
-23.79
-21.96
-18.40
-13.33
-7.06
-0.11
6.66
12.30
16.13
18.16
19.21
20.50
23.15
27.51
33.21
39.38
45.22
50.32
54.68
58.50
61.85
64.59
66.47
67.43
67.72
67.77
68.02
68.50
68.80
68.15
65.71
60.89
53.55
43.99
32.87
21.02
9.13
-2.28
-13.09
-23.50
-33.77
-44.04
-54.02
-62.91
-69.53
-72.77
-72.04
-67.56
-60.39
-52.05
-44.07
-37.35
-32.03
-27.51
-22.94
-17.64
-11.45
-4.76
1.87
7.98
13.46
18.44
22.95
26.76
29.35
30.17
28.85
25.34
19.70
12.12
2.86
-7.45
-17.73
-26.58
-32.73
-35.61
-35.59
-33.71
-31.12
-28.37
-25.22
-20.89
-14.72
-6.70
2.35
11.15
18.57
23.96
27.38
29.14
29.57
28.78
26.69
23.31
18.91
14.08
9.50
5.64
2.71
0.54
-1.16
-2.62
-4.02
-5.38
-6.83
-8.54
-10.64
-13.09
-15.55
-17.60
-18.95
-19.74
-20.52
-21.93
-24.42
-27.66
-30.58
-31.76
-29.81
-24.37
-16.20
-7.07
1.07
6.91
10.28
11.93
12.96
14.01
15.00
15.11
13.75
10.83
7.19
4.09
2.41
2.30
2.83
2.70
0.94
-2.50
-6.70
-10.22
-11.84
-11.25
-9.19
-7.08
-6.64
-8.83
-13.66
-20.15
-26.56
-31.29
-33.27
-32.32
-28.98
-24.12
-18.47
-12.51
-6.41
-0.26
5.65
10.60
14.02
15.53
15.51
15.01
15.16
16.86
20.03
23.88
27.19
29.10
29.51
29.09
28.80
29.28
30.34
31.19
30.55
27.69
22.54
15.75
8.46
1.49
-4.81
-10.56
-15.84
-20.35
-23.27
-23.75
-21.42
-16.77
-11.12
-6.18
-3.08
-2.15
-2.73
-3.64
-4.03
-3.53
-2.60
-2.01
-2.30
-3.47
-4.93
-5.85
-5.70
-4.53
-3.08
-2.33
-3.20
-5.83
-9.70
-13.89
-17.49
-20.25
-22.49
-25.00
-28.42
-32.80
-37.41
-41.15
-43.00
-42.48
-39.86
-36.17
-32.50
-29.78
-28.35
-27.90
-28.06
-28.50
-29.51
-31.82
-36.21
-43.06
-51.89
-61.34
-69.64
-75.22
-77.36
-76.30
-73.22
-69.38
-65.70
-62.53
-59.69
-57.27
-55.65
-55.62
-57.74
-61.92
-67.18
-72.10
-75.43
-76.59
-75.65
-73.12
-69.18
-63.64
-56.00
-45.84
-33.55
-20.22
-7.46
3.15
10.73
15.44
18.20
20.43
23.40
27.85
33.83
41.08
49.09
57.77
67.31
77.89
89.59
101.80
113.55
123.77
131.71
137.23
140.70
142.69
143.63
143.69
142.67
140.26
136.36
131.24
125.71
120.86
117.54
115.93
115.44
114.88
112.97
108.97
102.84
95.18
86.81
78.27
69.61
60.64
51.12
41.12
31.14
21.71
13.28
5.82
-1.06
-7.90
-15.04
-22.44
-29.61
-35.89
-40.83
-44.34
-46.83
-49.00
-51.52
-54.75
-58.63
-62.71
-66.34
-68.80
-69.60
-68.46
-65.44
-60.94
-55.54
-50.03
-45.15
-41.35
-38.86
-37.51
-36.95
-36.79
-36.70
-36.58
-36.41
-36.33
-36.44
-36.82
-37.51
-38.51
-39.80
-41.36
-43.06
-44.58
-45.55
-45.62
-44.65
-42.91
-40.83
-38.94
-37.60
-36.79
-36.32
-35.90
-35.30
-34.46
-33.37
-31.88
-29.70
-26.42
-21.74
-15.65
-8.51
-0.91
6.55
13.50
19.85
25.60
30.79
35.28
38.82
41.18
42.31
42.39
41.77
40.84
39.86
38.86
37.82
36.61
35.09
33.25
30.99
28.32
25.27
21.92
18.45
15.07
11.98
9.24
6.76
4.21
1.10
-3.08
-8.60
-15.21
-22.18
-28.35
-32.56
-34.13
-33.03
-29.96
-26.03
-22.33
-19.58
-17.96
-17.16
-16.77
-16.42
-16.16
-16.16
-16.61
-17.54
-18.66
-19.66
-20.30
-20.64
-20.97
-21.63
-22.76
-24.27
-25.88
-27.31
-28.56
-29.93
-31.95
-35.17
-39.85
-45.81
-52.41
-58.76
-64.16
-68.29
-71.28
-73.39
-74.57
-74.29
-71.74
-66.29
-58.12
-48.25
-38.28
-29.59
-22.87
-17.92
-14.07
-10.65
-7.38
-4.37
-1.82
0.24
2.22
4.59
7.71
11.48
15.35
18.49
20.24
20.23
18.65
16.14
13.36
11.01
9.25
7.88
6.38
4.15
0.90
-3.19
-7.56
-11.42
-14.00
-14.81
-13.75
-10.95
-6.75
-1.48
4.54
10.85
16.93
22.11
25.88
28.03
28.79
28.76
28.70
29.17
30.37
31.98
33.47
34.25
34.03
32.99
31.45
29.89
28.47
27.04
25.25
22.81
19.72
16.30
12.96
9.89
6.91
3.46
-1.17
-7.22
-14.29
-21.32
-26.75
-29.31
-28.31
-24.03
-17.53
-10.14
-2.97
3.48
9.29
14.69
19.86
24.49
28.11
30.30
31.17
31.36
31.74
32.98
35.11
37.65
39.83
41.15
41.64
41.69
41.81
42.25
42.96
43.76
44.46
45.10
45.82
46.59
47.24
47.24
45.95
42.90
37.94
31.46
24.42
18.12
13.96
12.91
15.25
20.31
26.69
32.69
36.91
38.66
37.94
35.29
31.35
26.69
21.69
16.65
11.90
7.76
4.53
2.36
1.19
0.73
0.54
0.14
-0.83
-2.52
-4.81
-7.41
-10.02
-12.40
-14.47
-16.24
-17.77
-19.19
-20.66
-22.42
-24.75
-27.90
-31.84
-36.22
-40.32
-43.24
-44.29
-43.23
-40.42
-36.64
-32.85
-29.67
-27.20
-24.87
-21.66
-16.51
-8.73
1.67
14.09
27.37
40.34
51.95
61.49
68.51
72.63
73.57
71.23
66.00
58.75
50.70
42.94
35.98
29.64
23.19
15.88
7.40
-1.96
-11.35
-19.68
-25.95
-29.48
-30.00
-27.72
-23.28
-17.69
-12.05
-7.29
-3.90
-1.93
-1.19
-1.30
-2.08
-3.35
-4.86
-6.19
-6.71
-5.87
-3.44
0.26
4.49
8.29
10.85
11.70
10.79
8.31
4.52
-0.36
-6.10
-12.36
-18.68
-24.40
-28.82
-31.39
-31.86
-30.42
-27.64
-24.26
-20.93
-17.97
-15.34
-12.76
-10.05
-7.22
-4.60
-2.58
-1.42
-1.10
-1.40
-2.07
-3.01
-4.26
-5.79
-7.28
-8.09
-7.42
-4.77
-0.26
5.28
10.50
14.04
15.05
13.36
9.53
4.46
-1.02
-6.33
-11.32
-16.04
-20.57
-24.75
-28.18
-30.27
-30.43
-28.36
-24.20
-18.63
-12.58
-7.00
-2.44
1.09
4.06
7.28
11.40
16.79
23.28
30.33
37.13
42.87
46.96
49.01
48.99
47.00
43.35
38.43
32.74
26.86
21.38
16.82
13.43
11.22
9.82
8.68
7.21
4.99
1.93
-1.60
-4.92
-7.23
-7.95
-7.01
-4.86
-2.37
-0.49
0.01
-1.17
-3.82
-7.44
-11.38
-15.19
-18.55
-21.32
-23.37
-24.51
-24.61
-23.57
-21.60
-19.26
-17.31
-16.61
-17.72
-20.74
-25.17
-30.04
-34.14
-36.47
-36.43
-34.02
-29.74
-24.28
-18.34
-12.39
-6.74
-1.64
2.56
5.41
6.58
6.07
4.47
2.89
2.60
4.48
8.66
14.25
19.65
23.11
23.26
19.69
13.05
4.85
-2.97
-8.68
-11.15
-10.17
-6.34
-0.91
4.73
9.31
11.90
12.00
9.44
4.46
-2.42
-10.51
-19.01
-27.14
-34.10
-39.14
-41.47
-40.61
-36.53
-29.97
-22.36
-15.41
-10.42
-7.75
-6.85
-6.59
-5.92
-4.34
-1.94
0.89
3.75
6.53
9.20
11.68
13.72
14.87
14.77
13.38
10.95
7.95
4.83
1.77
-1.25
-4.49
-8.25
-12.73
-18.03
-24.15
-30.89
-37.99
-44.90
-50.88
-55.09
-56.75
-55.46
-51.29
-44.91
-37.34
-29.77
-23.19
-18.16
-14.75
-12.62
-11.23
-10.05
-8.72
-7.01
-4.84
-2.10
1.44
5.93
11.32
17.20
22.83
27.36
30.13
30.96
30.23
28.78
27.48
26.96
27.35
28.37
29.54
30.40
30.56
29.75
27.71
24.15
18.95
12.28
4.84
-2.27
-7.86
-11.02
-11.57
-10.11
-7.70
-5.48
-4.06
-3.45
-3.08
-2.17
-0.17
3.02
7.07
11.40
15.46
18.88
21.49
23.21
23.90
23.35
21.36
17.84
12.97
7.28
1.42
-3.98
-8.48
-11.93
-14.37
-16.04
-17.18
-18.11
-19.26
-21.09
-23.92
-27.65
-31.62
-34.73
-35.73
-33.68
-28.23
-19.81
-9.39
1.79
12.56
22.06
29.86
35.94
40.63
44.42
47.68
50.59
53.10
55.06
56.36
56.86
56.42
54.78
51.61
46.67
40.06
32.20
23.83
15.78
8.66
2.76
-2.06
-6.26
-10.44
-15.12
-20.65
-26.99
-33.80
-40.48
-46.29
-50.52
-52.61
-52.16
-49.13
-43.77
-36.77
-29.12
-21.93
-16.11
-12.15
-10.04
-9.38
-9.62
-10.28
-11.09
-11.86
-12.53
-12.94
-12.97
-12.54
-11.64
-10.55
-9.64
-9.30
-9.76
-10.97
-12.53
-13.90
-14.63
-14.56
-13.94
-13.37
-13.45
-14.64
-16.86
-19.57
-21.92
-22.94
-22.02
-18.98
-14.24
-8.52
-2.75
2.43
6.68
10.04
12.76
15.05
16.79
17.76
17.66
16.58
15.12
14.02
13.94
14.91
16.32
17.21
16.68
14.53
11.18
7.53
4.36
1.84
-0.44
-3.31
-7.41
-12.74
-18.73
-24.34
-28.77
-31.67
-33.22
-33.74
-33.34
-31.67
-28.09
-22.15
-14.04
-4.67
4.36
11.55
15.88
17.13
15.88
12.97
9.31
5.45
1.89
-0.81
-1.95
-0.76
3.12
9.45
17.32
25.33
32.26
37.33
40.53
42.34
43.35
44.03
44.33
43.94
42.38
39.35
34.88
29.17
22.56
15.28
7.49
-0.52
-8.39
-15.29
-20.35
-22.89
-22.73
-20.48
-17.19
-14.08
-11.92
-10.95
-10.82
-10.97
-10.93
-10.53
-9.86
-9.22
-8.83
-8.72
-8.62
-8.09
-6.79
-4.67
-2.19
-0.05
1.01
0.61
-0.97
-3.03
-4.68
-5.40
-5.25
-4.84
-5.21
-7.24
-11.43
-17.62
-25.06
-32.74
-39.56
-44.66
-47.38
-47.28
-44.10
-38.01
-29.63
-20.05
-10.60
-2.49
3.63
7.68
10.20
11.97
13.59
15.43
17.39
19.23
20.60
21.34
21.43
21.00
20.15
18.83
16.83
13.93
9.95
5.14
0.01
-4.82
-8.85
-12.06
-14.86
-17.88
-21.71
-26.47
-31.70
-36.45
-39.52
-39.83
-36.70
-30.22
-21.09
-10.63
-0.24
8.93
16.10
21.15
24.16
25.46
25.40
24.38
22.92
21.66
21.16
21.69
23.01
24.49
25.32
25.00
23.63
21.85
20.71
20.95
22.74
25.51
28.27
30.01
30.21
28.81
26.12
22.46
18.04
12.80
6.83
0.40
-5.79
-10.81
-13.96
-14.97
-14.31
-12.95
-11.99
-12.19
-13.70
-16.20
-19.05
-21.77
-24.24
-26.58
-29.01
-31.35
-32.97
-32.95
-30.35
-24.98
-17.49
-9.34
-2.20
2.83
5.63
7.09
8.63
11.46
16.18
22.49
29.54
36.25
41.71
45.30
46.63
45.62
42.38
37.43
31.64
26.04
21.54
18.52
16.82
15.81
14.71
12.92
10.14
6.58
2.69
-1.08
-4.32
-7.17
-10.00
-13.48
-18.04
-23.51
-29.05
-33.36
-35.34
-34.66
-32.07
-29.06
-27.17
-27.29
-29.18
-31.74
-33.77
-34.41
-33.65
-32.00
-30.15
-28.48
-27.03
-25.73
-24.68
-24.28
-24.90
-26.45
-28.26
-28.89
-26.78
-20.89
-11.14
1.35
14.73
27.01
36.75
43.51
47.76
50.47
52.68
54.98
57.43
59.64
61.16
61.61
60.92
59.19
56.47
52.60
47.15
39.59
29.74
18.05
5.67
-5.87
-15.23
-21.84
-26.04
-28.86
-31.44
-34.41
-37.58
-40.28
-41.74
-41.75
-40.69
-39.30
-38.17
-37.38
-36.36
-34.30
-30.34
-23.95
-15.07
-3.98
8.81
22.52
36.16
48.40
57.65
62.39
61.66
55.51
45.12
32.54
20.07
9.53
1.89
-2.91
-5.53
-6.85
-7.56
-7.99
-8.21
-8.21
-8.03
-7.79
-7.66
-7.71
-7.95
-8.39
-9.18
-10.70
-13.38
-17.46
-22.61
-27.95
-32.08
-33.61
-31.56
-25.69
-16.61
-5.54
5.92
16.10
23.60
27.52
27.66
24.49
18.89
11.77
3.74
-4.75
-13.31
-21.08
-26.97
-29.92
-29.59
-26.90
-23.66
-21.71
-21.62
-21.96
-19.79
-12.15
2.13
21.40
41.61
57.88
66.85
67.64
62.02
53.11
43.61
35.11
27.72
21.00
14.81
9.88
7.50
8.75
13.73
21.18
28.82
34.33
35.97
33.70
28.81
23.50
20.05
19.64
22.06
26.03
29.83
32.38
33.59
34.17
34.90
36.06
37.19
37.15
35.26
31.41
26.56
22.20
19.25
17.63
15.87
11.99
4.59
-5.97
-17.33
-26.14
-29.40
-26.06
-17.43
-6.37
3.93
11.85
17.73
23.34
30.95
41.64
54.94
69.01
81.45
90.34
94.62
94.03
88.90
79.91
68.21
55.20
42.94
33.39
28.08
27.52
30.74
35.71
39.77
40.70
37.38
30.15
20.46
10.27
1.53
-4.43
-6.93
-5.84
-1.60
5.11
13.44
22.28
30.42
36.60
39.78
39.47
35.94
30.08
23.13
16.17
9.76
3.80
-2.24
-9.22
-17.59
-27.44
-38.35
-49.66
-61.02
-72.45
-84.37
-97.23
-111.11
-125.56
-139.76
-152.84
-164.12
-173.24
-179.87
-183.59
-183.75
-179.71
-171.06
-157.87
-140.86
-121.22
-100.48
-80.26
-61.86
-46.12
-33.27
-22.91
-14.42
-7.06
-0.35
5.94
11.96
17.87
23.86
30.08
36.51
42.96
49.13
54.76
59.71
63.97
67.57
70.44
72.49
73.63
73.86
73.31
72.25
70.94
69.67
68.64
68.04
68.02
68.59
69.61
70.75
71.58
71.77
71.14
69.68
67.53
64.78
61.63
58.28
55.13
52.74
51.61
52.08
54.08
57.15
60.51
63.17
64.11
62.40
57.45
49.33
38.90
27.64
17.19
8.72
2.51
-2.10
-6.29
-11.08
-16.85
-23.13
-28.90
-33.11
-35.04
-34.59
-32.31
-29.18
-26.43
-25.15
-26.03
-29.18
-34.05
-39.61
-44.69
-48.21
-49.46
-48.09
-44.17
-38.19
-30.92
-23.33
-16.34
-10.55
-6.20
-3.10
-0.84
0.95
2.59
4.29
6.22
8.63
11.64
15.21
19.09
22.82
25.97
28.26
29.49
29.32
27.08
21.76
12.51
-0.83
-17.24
-34.55
-49.91
-60.75
-65.71
-64.97
-60.24
-53.82
-47.72
-42.82
-38.78
-34.52
-29.10
-22.55
-16.05
-11.55
-10.74
-14.32
-21.60
-30.93
-40.50
-49.06
-56.33
-62.55
-68.15
-73.11
-77.01
-79.29
-79.56
-77.86
-74.66
-70.59
-66.24
-62.00
-57.92
-53.91
-49.76
-45.40
-40.90
-36.48
-32.43
-28.87
-25.62
-22.32
-18.53
-14.09
-9.12
-4.13
0.40
4.08
6.86
8.88
10.32
11.31
11.90
12.13
12.09
11.99
12.04
12.49
13.49
15.20
17.73
21.21
25.59
30.66
35.99
40.91
44.81
47.19
47.83
46.87
44.71
41.86
38.79
35.84
33.19
30.84
28.74
26.64
24.32
21.58
18.37
14.94
11.73
9.25
7.93
7.98
9.40
12.02
15.58
19.75
24.09
28.09
31.10
32.72
32.76
31.39
29.04
26.16
23.09
19.92
16.66
13.39
10.35
7.86
6.16
5.29
4.95
4.63
3.92
2.57
0.72
-1.25
-2.95
-4.12
-4.89
-5.65
-6.76
-8.44
-10.51
-12.47
-13.82
-14.24
-13.81
-12.86
-11.89
-11.10
-10.46
-9.71
-8.51
-6.86
-4.93
-3.17
-1.91
-1.27
-1.03
-0.80
-0.20
0.91
2.33
3.54
3.97
3.21
1.23
-1.47
-4.20
-6.24
-7.34
-7.74
-8.04
-8.90
-10.62
-13.00
-15.53
-17.64
-19.01
-19.70
-20.03
-20.22
-20.25
-19.84
-18.62
-16.63
-14.30
-12.46
-11.79
-12.51
-14.14
-15.82
-16.64
-16.13
-14.47
-12.41
-10.71
-9.93
-10.12
-10.88
-11.73
-12.26
-12.46
-12.63
-13.22
-14.56
-16.67
-19.15
-21.35
-22.57
-22.39
-20.81
-18.37
-15.71
-13.47
-11.96
-11.00
-10.29
-9.50
-8.58
-7.71
-7.07
-6.64
-6.18
-5.34
-3.87
-1.87
0.16
1.70
2.31
1.98
1.06
0.04
-0.73
-1.25
-1.82
-2.92
-4.85
-7.60
-10.73
-13.54
-15.26
-15.34
-13.62
-10.49
-6.59
-2.71
0.53
2.90
4.41
5.23
5.50
5.28
4.65
3.77
2.93
2.45
2.47
2.89
3.34
3.46
3.01
2.09
1.04
0.22
-0.22
-0.51
-1.08
-2.40
-4.67
-7.62
-10.64
-12.95
-13.99
-13.50
-11.61
-8.74
-5.31
-1.64
2.02
5.61
8.94
11.79
13.85
14.87
14.82
14.00
12.85
11.92
11.53
11.70
12.10
12.37
12.16
11.47
10.50
9.49
8.62
7.77
6.73
5.35
3.74
2.24
1.21
0.81
0.95
1.35
1.85
2.45
3.55
5.54
8.61
12.62
16.88
20.63
23.16
24.16
23.71
22.20
20.04
17.62
15.16
12.75
10.32
7.76
4.90
1.71
-1.66
-5.00
-7.99
-10.52
-12.66
-14.63
-16.69
-19.00
-21.55
-24.22
-26.74
-28.91
-30.44
-31.13
-30.67
-28.95
-25.99
-22.02
-17.56
-13.18
-9.39
-6.49
-4.48
-3.11
-2.16
-1.41
-0.80
-0.36
-0.19
-0.31
-0.73
-1.40
-2.25
-3.27
-4.39
-5.64
-7.02
-8.50
-9.99
-11.32
-12.35
-13.08
-13.74
-14.84
-16.95
-20.45
-25.18
-30.38
-34.95
-37.76
-38.28
-36.61
-33.51
-29.92
-26.62
-23.97
-22.04
-20.76
-20.16
-20.38
-21.66
-24.03
-27.33
-31.17
-35.15
-39.04
-42.80
-46.56
-50.54
-54.90
-59.71
-64.93
-70.36
-75.84
-81.32
-86.99
-93.28
-100.72
-109.63
-119.92
-130.94
-141.57
-150.53
-156.53
-158.66
-156.39
-149.70
-138.99
-125.03
-108.81
-91.38
-73.78
-57.02
-41.89
-28.93
-18.17
-8.96
-0.32
8.71
18.50
28.62
38.13
46.12
52.39
57.51
62.48
68.04
74.24
80.43
85.60
89.01
90.31
89.69
87.63
84.69
81.44
78.52
76.55
76.05
77.29
80.18
84.28
88.95
93.61
97.74
101.10
103.65
105.47
106.74
107.59
108.07
108.24
108.16
107.92
107.68
107.44
107.11
106.49
105.33
103.48
100.87
97.44
93.16
88.01
82.03
75.35
68.05
59.98
50.71
39.46
25.41
8.11
-12.26
-34.58
-57.06
-77.44
-93.53
-103.52
-106.29
-101.47
-89.58
-71.95
-50.67
-28.19
-6.83
11.71
26.67
38.16
46.79
53.19
57.62
59.94
59.82
57.08
51.93
45.05
37.34
29.77
23.05
17.55
13.32
10.12
7.55
5.17
2.58
-0.42
-3.75
-7.00
-9.50
-10.45
-9.20
-5.40
0.83
8.89
17.92
27.04
35.57
43.18
49.78
55.49
60.46
64.79
68.50
71.55
73.81
75.03
74.86
72.93
68.95
62.97
55.36
46.81
38.18
30.18
23.36
17.93
13.86
10.95
8.92
7.44
6.20
5.05
3.93
2.98
2.54
2.82
3.97
5.80
7.89
9.69
10.78
10.93
10.22
8.85
7.01
4.68
1.82
-1.63
-5.46
-9.25
-12.53
-14.93
-16.42
-17.34
-18.14
-19.22
-20.64
-22.21
-23.59
-24.58
-25.17
-25.54
-26.05
-26.82
-27.94
-29.47
-31.49
-34.43
-38.82
-45.19
-53.65
-63.61
-73.73
-82.20
-87.16
-87.32
-82.23
-72.55
-59.69
-45.54
-31.86
-19.94
-10.45
-3.36
1.55
4.68
6.28
6.53
5.68
4.11
2.35
0.76
-0.49
-1.64
-3.29
-5.93
-9.82
-14.71
-19.89
-24.52
-27.89
-29.70
-30.03
-29.28
-27.82
-25.91
-23.66
-21.11
-18.41
-15.92
-14.15
-13.65
-14.69
-17.17
-20.58
-24.15
-27.21
-29.34
-30.45
-30.71
-30.47
-30.26
-30.71
-32.61
-36.66
-43.22
-52.10
-62.46
-73.20
-83.30
-92.29
-100.38
-108.15
-116.09
-124.15
-131.65
-137.52
-140.83
-141.14
-138.53
-133.50
-126.73
-118.69
-109.65
-99.43
-87.49
-72.92
-54.62
-31.89
-4.75
25.52
56.69
86.20
112.11
133.84
152.03
167.79
181.78
193.52
201.64
204.76
202.33
195.25
185.47
175.43
167.17
161.83
159.36
158.44
156.42
149.59
134.09
107.20
68.55
20.82
-31.05
-81.39
-125.81
-162.30
-191.06
-213.45
-230.54
-242.33
-248.10
-247.18
-239.93
-227.47
-210.89
-190.35
-164.85
-133.28
-96.05
-56.24
-19.36
8.36
22.57
22.62
11.92
-3.79
-18.78
-29.62
-35.78
-38.81
-40.56
-41.70
-41.25
-37.24
-28.12
-13.86
3.60
21.04
35.30
44.66
49.36
51.20
52.40
54.43
57.28
59.60
59.54
55.61
47.48
36.10
23.35
11.38
1.99
-3.70
-5.24
-2.70
3.49
12.59
23.42
34.37
43.51
49.06
50.07
46.97
41.77
37.53
37.45
43.54
55.89
72.48
90.01
105.05
115.36
120.44
121.45
120.46
119.44
119.62
121.29
123.98
127.03
129.81
131.89
132.97
132.72
130.79
126.99
121.41
114.53
107.19
100.37
94.86
90.97
88.40
86.34
83.81
79.97
74.41
67.25
58.95
50.13
41.26
32.64
24.38
16.57
9.28
2.62
-3.32
-8.49
-12.92
-16.62
-19.60
-21.88
-23.57
-24.96
-26.48
-28.70
-32.11
-36.99
-43.18
-50.12
-56.94
-62.71
-66.69
-68.55
-68.41
-66.69
-63.88
-60.36
-56.39
-52.18
-47.97
-44.08
-40.76
-38.11
-35.99
-34.12
-32.23
-30.25
-28.30
-26.61
-25.33
-24.43
-23.79
-23.24
-22.79
-22.57
-22.82
-23.70
-25.12
-26.76
-28.11
-28.64
-27.94
-25.90
-22.69
-18.76
-14.66
-10.96
-8.12
-6.41
-5.87
-6.32
-7.45
-8.87
-10.32
-11.68
-13.06
-14.58
-16.35
-18.35
-20.43
-22.44
-24.20
-25.60
-26.54
-26.94
-26.87
-26.64
-26.75
-27.80
-30.13
-33.59
-37.43
-40.56
-41.87
-40.70
-37.03
-31.39
-24.64
-17.68
-11.23
-5.73
-1.39
1.82
4.13
5.87
7.44
9.20
11.36
13.93
16.78
19.59
21.97
23.54
24.08
23.52
22.05
20.01
17.74
15.55
13.50
11.45
9.08
6.00
1.91
-3.24
-9.22
-15.57
-21.76
-27.34
-31.95
-35.32
-37.03
-36.56
-33.42
-27.52
-19.45
-10.45
-2.09
4.35
8.34
10.17
10.66
10.70
10.76
10.82
10.68
10.18
9.54
9.37
10.36
13.01
17.30
22.62
27.91
31.99
33.87
33.06
29.61
24.11
17.33
10.01
2.67
-4.49
-11.52
-18.65
-26.18
-34.27
-42.86
-51.43
-59.01
-64.22
-65.70
-62.55
-54.81
-43.53
-30.47
-17.56
-6.27
2.70
9.38
14.12
17.26
18.85
18.80
17.14
14.19
10.60
7.10
4.17
1.92
0.11
-1.58
-3.20
-4.49
-4.99
-4.32
-2.47
0.19
3.09
5.70
7.74
9.20
10.13
10.47
10.00
8.37
5.29
0.72
-5.15
-11.78
-18.32
-23.67
-26.59
-26.00
-21.36
-12.99
-2.04
9.86
21.15
30.82
38.57
44.60
49.28
52.80
55.14
56.29
56.38
55.79
54.97
54.18
53.39
52.26
50.44
47.73
44.19
40.10
35.78
31.45
27.17
22.91
18.66
14.44
10.38
6.59
3.10
-0.16
-3.41
-6.99
-11.27
-16.60
-23.15
-30.68
-38.45
-45.18
-49.32
-49.49
-44.99
-36.16
-24.39
-11.68
0.01
9.43
16.24
20.91
24.28
27.05
29.47
31.38
32.49
32.64
31.99
30.89
29.79
28.88
28.11
27.25
25.99
24.17
21.82
19.15
16.48
14.07
12.01
10.17
8.22
5.88
3.05
-0.10
-3.29
-6.35
-9.31
-12.42
-15.81
-19.16
-21.62
-22.01
-19.32
-13.27
-4.55
5.39
14.83
22.42
27.50
30.14
30.83
30.11
28.43
26.12
23.55
21.12
19.31
18.45
18.55
19.35
20.38
21.21
21.64
21.66
21.45
21.13
20.65
19.77
18.14
15.50
11.75
7.15
