1574754366.00
64.000000
-0.00
-0.00
-0.00
-0.00
-0.00
-0.00
-0.00
-0.00
-0.00
-0.00
0.00
0.01
0.01
-0.00
-0.03
-0.05
-0.05
0.00
0.13
0.36
0.66
1.01
1.37
1.72
2.06
2.40
2.79
3.24
3.80
4.42
5.06
5.66
6.20
6.68
7.15
7.68
8.31
9.14
10.09
11.04
11.88
12.56
13.14
13.76
14.65
15.96
17.91
20.32
22.90
25.38
27.58
29.57
31.68
34.32
37.81
42.54
48.15
54.10
59.83
64.97
69.58
74.14
79.34
85.71
93.76
103.00
112.62
121.73
129.77
136.75
143.30
150.75
157.77
166.64
177.95
191.79
206.97
220.57
228.25
225.36
208.53
176.87
132.76
80.05
23.07
-34.94
-92.44
-149.16
-205.23
-260.37
-313.74
-363.87
-409.83
-450.91
-486.50
-515.74
-537.23
-549.22
-549.96
-538.37
-514.21
-478.67
-433.88
-382.45
-327.02
-269.84
-212.63
-156.66
-102.95
-52.37
-5.90
35.58
71.43
101.35
125.50
144.38
158.69
169.15
176.37
180.75
182.57
182.07
179.51
175.23
169.65
163.18
156.15
148.81
141.30
133.69
126.02
118.33
110.69
103.16
95.80
88.68
81.83
75.25
68.95
62.95
57.25
51.86
46.78
42.03
37.59
33.45
29.61
26.07
22.81
19.83
17.11
14.67
12.48
10.54
8.83
7.35
6.07
4.97
4.05
3.27
2.62
2.09
1.65
1.30
1.01
0.79
0.61
0.47
0.37
0.29
0.23
0.18
0.16
0.14
0.13
0.14
0.15
0.17
0.19
0.22
0.26
0.30
0.34
0.39
0.44
0.48
0.54
0.59
0.65
0.71
0.77
0.84
0.91
0.98
1.06
1.15
1.25
1.36
1.48
1.62
1.77
1.95
2.15
2.37
2.61
2.89
3.19
3.53
3.89
4.29
4.73
5.20
5.72
6.26
6.86
7.49
8.16
8.89
9.65
10.46
11.32
12.21
13.15
14.15
15.20
16.31
17.49
18.71
19.97
21.22
22.41
23.47
24.30
24.79
24.81
24.28
23.10
21.24
18.68
15.48
11.69
7.48
2.97
-1.66
-6.24
-10.63
-14.66
-18.23
-21.23
-23.62
-25.32
-26.36
-26.74
-26.50
-25.66
-24.26
-22.35
-19.98
-17.23
-14.19
-11.05
-7.99
-5.19
-2.78
-0.86
0.56
1.54
2.18
2.63
2.90
2.97
2.87
2.60
2.21
1.83
1.58
1.63
2.12
2.84
3.60
4.19
4.47
4.41
4.14
3.92
4.03
4.78
5.93
7.22
8.36
9.06
9.23
8.88
8.21
7.57
7.38
7.40
7.30
6.47
3.92
-1.52
-10.93
-24.96
-43.88
-63.65
-81.34
-94.49
-101.77
-103.23
-100.05
-93.90
-86.26
-77.93
-68.99
-59.72
-50.18
-40.50
-30.82
-21.25
-12.09
-3.96
1.89
3.96
0.59
-8.69
-22.79
-39.21
-54.86
-67.29
-75.30
-79.02
-79.08
-76.02
-69.53
-58.91
-43.90
-25.51
-6.08
11.44
24.55
32.13
34.36
32.58
28.40
23.34
18.70
15.77
16.02
20.80
30.82
45.47
62.68
79.29
91.95
98.23
97.27
89.98
78.35
64.60
50.29
36.04
21.89
8.00
-4.66
-14.20
-18.35
-15.39
-5.13
10.87
29.69
47.96
62.89
72.87
77.33
76.55
71.06
61.66
49.49
36.13
23.55
13.61
7.51
5.30
5.84
7.25
7.58
5.55
0.93
-5.60
-12.85
-19.74
-25.80
-31.28
-36.99
-43.79
-52.03
-61.20
-69.82
-75.66
-76.50
-70.79
-58.23
-39.95
-18.21
4.24
24.83
41.59
53.40
59.94
61.62
59.45
54.94
49.77
45.44
42.78
41.76
41.68
41.52
40.37
37.56
32.71
25.63
16.30
4.96
-7.74
-20.92
-33.74
-45.76
-57.06
-67.85
-77.98
-86.48
-91.59
-91.43
-84.82
-71.91
-54.22
-34.19
-14.41
2.89
16.20
24.54
27.38
24.73
17.21
6.26
-6.14
-17.95
-27.68
-34.83
-39.85
-43.78
-47.58
-51.79
-56.38
-61.01
-65.31
-69.04
-72.08
-74.41
-76.13
-77.55
-79.12
-80.94
-82.12
-80.52
-73.17
-57.45
-32.43
0.47
37.82
75.35
109.32
137.29
158.07
171.23
176.75
175.23
168.31
158.72
149.70
143.76
141.61
141.85
141.68
138.32
130.34
118.22
103.86
89.67
77.53
68.23
61.54
56.56
52.12
46.96
39.99
30.38
18.18
4.46
-8.63
-18.42
-22.81
-21.03
-14.05
-4.31
5.31
12.36
15.35
13.79
7.96
-1.42
-13.16
-25.78
-37.66
-47.39
-54.30
-58.70
-61.57
-63.88
-66.09
-67.73
-67.72
-65.14
-59.79
-52.41
-44.45
-37.55
-33.21
-32.55
-36.20
-44.07
-54.95
-66.30
-74.67
-76.59
-69.83
-54.39
-32.38
-7.15
18.07
41.07
60.68
76.19
86.62
90.68
87.27
76.44
59.95
41.03
23.54
10.83
4.67
4.93
9.82
16.56
22.27
24.78
23.09
17.43
8.93
-0.89
-10.68
-19.73
-27.90
-35.51
-42.80
-49.54
-54.82
-57.07
-54.63
-46.40
-32.35
-13.83
6.90
27.32
45.30
59.49
69.21
74.18
74.39
70.19
62.62
53.39
44.57
37.88
34.05
32.66
32.53
32.41
31.67
30.50
29.58
29.54
30.45
31.68
32.20
30.95
27.28
21.09
12.96
4.21
-3.25
-7.17
-5.45
3.16
18.63
39.55
63.51
87.75
110.07
129.33
145.54
159.38
171.46
181.58
188.48
190.16
184.78
171.56
151.42
126.81
100.86
76.38
54.94
36.80
21.20
7.03
-7.03
-22.39
-40.89
-64.51
-94.84
-131.97
-173.48
-214.44
-248.14
-268.14
-270.27
-254.01
-222.61
-181.87
-138.19
-96.80
-60.80
-31.29
-8.38
8.03
17.68
20.46
17.12
9.93
2.38
-1.96
-1.03
4.67
12.11
17.16
16.28
8.12
-6.32
-24.41
-43.29
-60.74
-75.58
-87.36
-96.09
-102.00
-105.33
-106.10
-103.62
-96.37
-82.37
-60.36
-30.91
3.13
37.27
67.01
89.19
102.78
108.56
108.11
102.89
93.92
82.18
68.96
56.03
45.27
38.07
34.82
34.84
36.73
38.96
40.50
41.15
41.51
42.64
45.41
50.02
55.77
61.46
66.00
68.90
70.42
71.15
71.33
70.29
66.40
57.63
42.35
20.12
-8.17
-40.51
-74.31
-106.90
-135.95
-159.67
-176.96
-187.61
-192.31
-192.57
-190.33
-187.44
-185.24
-184.27
-184.31
-184.67
-184.61
-183.54
-181.16
-177.39
-172.35
-166.41
-160.27
-155.13
-152.32
-152.71
-156.06
-160.47
-162.78
-159.43
-147.99
-128.05
-101.52
-71.82
-42.66
-16.89
4.01
19.66
30.32
36.39
38.46
37.35
34.20
30.37
27.01
24.85
24.00
24.15
24.74
25.19
25.01
23.90
21.68
18.44
14.30
9.22
2.80
-5.62
-16.55
-29.65
-43.30
-54.57
-60.04
-56.91
-44.12
-22.86
3.69
31.38
56.35
75.89
88.88
95.35
96.23
92.79
86.52
79.15
72.68
69.03
69.37
73.35
78.80
82.42
81.08
73.45
60.59
45.61
32.01
21.88
14.91
8.67
0.25
-11.89
-26.74
-40.86
-49.84
-50.26
-41.04
-23.75
-1.84
20.73
40.80
56.57
67.68
74.53
77.66
77.50
74.33
68.55
60.81
51.96
42.82
34.01
25.73
18.00
10.67
3.63
-3.14
-9.53
-15.40
-20.64
-25.48
-30.61
-37.18
-46.40
-58.82
-73.50
-87.72
-97.53
-99.03
-89.97
-70.77
-44.55
-16.02
10.16
30.69
44.22
51.00
52.15
48.99
42.85
35.12
27.39
21.24
17.90
17.68
19.95
23.40
26.52
28.20
28.04
26.27
23.45
19.99
15.86
10.57
3.32
-6.60
-19.36
-34.10
-48.71
-60.20
-65.34
-61.86
-49.31
-29.43
-5.72
17.67
37.14
50.49
57.01
57.15
51.89
42.44
30.14
16.57
3.42
-7.70
-15.82
-20.74
-23.11
-23.97
-24.39
-25.07
-26.33
-28.21
-30.68
-33.92
-38.35
-44.60
-53.20
-64.10
-76.13
-86.95
-93.35
-92.25
-81.81
-62.23
-35.87
-6.60
21.30
44.30
60.23
68.55
70.11
66.68
60.55
54.08
49.37
47.89
50.34
56.60
65.84
76.74
87.56
96.43
101.52
101.49
95.56
83.76
66.70
45.24
20.41
-6.31
-32.37
-54.02
-66.92
-67.59
-55.10
-31.80
-2.81
25.78
49.05
64.61
72.56
74.44
71.90
66.00
57.28
46.41
34.56
23.33
14.21
7.93
4.40
2.94
2.80
3.42
4.53
6.13
8.06
9.87
10.77
9.72
5.59
-2.44
-14.39
-29.04
-43.69
-54.58
-57.91
-51.24
-34.49
-10.25
16.99
42.36
61.94
73.69
77.21
73.35
63.56
49.66
33.79
18.38
5.69
-2.81
-6.89
-7.63
-6.76
-6.00
-6.44
-8.43
-11.78
-16.22
-21.65
-28.30
-36.68
-47.40
-60.80
-76.41
-92.46
-105.89
-112.99
-110.70
-97.87
-76.09
-49.31
-22.62
-0.54
14.20
21.16
21.55
17.30
10.32
2.10
-6.18
-13.36
-18.22
-19.70
-17.18
-10.83
-1.76
8.27
17.27
23.54
26.12
24.81
19.88
11.82
1.23
-10.92
-22.86
-31.95
-35.20
-30.23
-16.38
4.79
29.82
54.43
74.92
89.06
96.26
97.20
93.15
85.57
75.83
65.43
55.76
48.05
43.07
40.85
40.71
41.48
41.71
40.04
35.54
27.73
16.76
3.08
-12.83
-30.68
-50.30
-71.12
-91.59
-108.84
-119.18
-119.18
-106.97
-83.27
-51.31
-15.98
17.59
45.39
65.15
76.41
80.06
77.85
71.88
64.35
57.11
51.41
47.72
45.94
45.57
46.08
47.01
47.94
48.38
47.72
45.40
41.05
34.42
25.43
14.11
0.85
-13.16
-25.69
-33.74
-34.37
-25.91
-8.95
13.61
37.27
57.46
70.81
75.93
73.21
64.22
50.95
35.35
19.22
4.15
-8.50
-17.85
-23.60
-26.04
-25.93
-24.28
-22.16
-20.60
-20.59
-22.90
-28.08
-36.42
-48.04
-63.01
-81.04
-101.07
-120.74
-136.37
-143.67
-139.23
-122.01
-94.07
-60.21
-26.37
2.31
22.90
35.16
40.72
41.93
40.88
38.96
36.91
35.22
34.32
34.62
36.33
39.29
42.85
46.04
47.82
47.42
44.53
39.25
31.83
22.42
10.86
-2.99
-18.71
-34.67
-47.97
-55.07
-53.02
-40.82
-20.08
5.35
30.72
51.94
66.61
74.31
76.10
73.70
68.98
63.67
59.16
56.40
55.60
55.98
55.94
53.58
47.41
36.91
22.68
6.19
-10.80
-26.69
-40.49
-51.86
-61.13
-69.05
-76.29
-82.81
-87.50
-88.29
-82.85
-69.68
-49.00
-23.14
4.17
28.98
48.36
61.10
67.61
69.27
67.70
64.32
60.29
56.60
54.09
53.21
53.79
54.96
55.35
53.43
48.13
39.08
26.70
11.80
-4.96
-23.33
-43.36
-64.76
-86.09
-104.51
-116.40
-118.71
-110.48
-93.52
-72.09
-51.39
-35.89
-28.02
-28.00
-34.40
-45.02
-57.70
-70.59
-82.12
-91.06
-96.53
-98.17
-96.27
-91.65
-85.52
-79.12
-73.36
-68.75
-65.36
-62.99
-61.57
-61.47
-63.50
-68.60
-77.04
-87.65
-97.50
-102.43
-98.36
-82.94
-56.70
-23.23
11.98
43.44
67.36
82.51
89.81
91.31
88.99
84.29
78.20
71.63
65.58
60.89
57.69
55.24
52.28
47.67
41.11
33.33
25.50
18.53
12.40
6.11
-1.91
-13.01
-27.77
-45.37
-63.52
-78.66
-86.81
-84.71
-71.00
-46.90
-16.11
16.37
45.72
68.59
83.64
91.17
92.43
88.91
82.12
73.68
65.36
58.90
55.47
55.15
56.80
58.40
57.80
53.56
45.44
34.38
22.12
10.34
0.16
-8.28
-15.79
-23.86
-34.06
-47.40
-63.56
-80.43
-94.35
-100.91
-96.56
-79.94
-52.68
-18.93
16.13
47.87
73.45
91.89
103.44
108.77
108.44
103.14
94.09
83.43
73.87
67.86
66.51
69.11
73.27
75.83
74.14
67.00
54.96
39.88
23.95
8.90
-4.51
-16.55
-28.10
-40.22
-53.90
-69.68
-87.48
-106.20
-123.46
-135.90
-139.92
-133.01
-114.80
-87.49
-55.21
-22.74
5.95
28.64
44.81
55.05
60.25
61.21
58.73
53.84
48.12
43.35
41.04
41.87
45.36
50.15
54.36
56.25
54.66
49.22
40.34
29.01
16.47
3.85
-8.11
-19.29
-30.15
-41.58
-54.53
-69.55
-86.17
-102.54
-115.55
-121.47
-117.20
-101.52
-75.85
-44.04
-11.20
17.89
40.09
54.41
61.60
63.17
60.66
55.30
48.14
40.37
33.43
28.75
27.23
28.91
32.85
37.33
40.53
41.02
38.21
32.33
24.25
15.08
5.77
-3.09
-11.38
-19.32
-27.46
-36.53
-47.19
-59.66
-73.14
-85.50
-93.54
-93.84
-83.99
-63.63
-34.74
-1.15
32.59
62.51
85.99
101.98
110.56
112.53
108.98
101.23
90.78
79.29
68.36
59.23
52.53
48.23
45.65
43.77
41.51
38.13
33.42
27.72
21.65
15.75
10.25
4.83
-1.18
-8.53
-17.79
-29.20
-42.64
-57.49
-72.52
-85.69
-94.37
-95.89
-88.46
-72.04
-48.60
-21.71
4.55
26.75
42.94
52.61
56.34
55.14
50.11
42.49
33.76
25.74
20.26
18.54
20.80
25.99
32.11
36.91
38.64
36.60
31.30
24.11
16.56
9.83
4.28
-0.57
-5.67
-12.06
-20.57
-31.67
-45.22
-60.43
-75.62
-88.24
-95.34
-94.46
-84.52
-66.48
-43.16
-18.30
4.60
23.30
36.86
45.20
48.53
47.10
41.50
33.00
23.68
15.88
11.42
10.77
13.05
16.47
19.15
19.92
18.50
15.26
10.81
5.44
-0.90
-8.46
-17.43
-27.67
-38.84
-50.54
-62.43
-74.13
-84.90
-93.31
-97.34
-94.97
-84.98
-67.69
-45.03
-19.84
5.04
27.56
46.62
61.68
72.22
77.63
77.59
72.57
64.14
54.63
46.30
40.62
37.83
37.05
36.87
35.98
33.58
29.56
24.35
18.65
13.12
8.05
3.26
-1.87
-8.22
-16.58
-27.26
-39.72
-52.34
-62.57
-67.54
-64.88
-53.67
-34.89
-11.25
13.66
36.50
54.93
67.78
74.72
75.72
70.77
60.14
44.80
26.64
8.16
-8.30
-21.36
-30.96
-38.16
-44.40
-50.78
-57.68
-64.77
-71.37
-76.89
-81.06
-83.99
-86.13
-88.23
-91.37
-96.75
-105.29
-116.70
-129.03
-138.75
-141.75
-134.93
-117.49
-91.44
-60.87
-30.43
-3.83
16.90
31.26
39.61
42.49
40.51
34.57
26.31
17.98
11.93
9.80
11.90
17.07
23.14
27.72
29.11
26.73
21.32
14.32
7.40
1.75
-2.26
-5.22
-8.36
-13.28
-21.17
-32.16
-44.73
-55.78
-61.39
-58.21
-44.83
-22.38
5.82
35.58
63.10
85.83
102.48
112.43
115.26
110.70
99.16
82.20
62.63
43.88
28.82
18.75
13.14
9.90
6.40
0.63
-8.22
-19.65
-32.33
-44.91
-56.58
-67.33
-77.83
-89.03
-101.63
-115.72
-130.30
-143.12
-150.88
-149.93
-137.44
-112.60
-77.24
-35.60
6.90
45.26
76.15
98.40
112.50
119.62
120.79
116.72
108.19
96.51
83.89
73.00
65.98
63.62
64.80
66.91
66.96
62.82
54.16
42.35
29.76
18.47
9.46
2.33
-4.26
-11.84
-21.58
-33.96
-48.67
-64.46
-79.09
-89.47
-92.40
-85.62
-68.86
-44.29
-15.89
11.81
35.23
52.50
63.39
68.55
68.72
64.51
56.56
46.17
35.30
26.24
20.74
19.37
21.31
24.71
27.55
28.40
26.88
23.50
19.16
14.57
9.90
4.76
-1.44
-9.29
-19.15
-31.09
-44.79
-59.23
-72.54
-82.01
-84.82
-78.98
-64.35
-42.93
-18.34
5.46
25.37
39.85
48.77
52.73
52.39
48.27
41.04
31.88
22.57
15.08
10.82
10.07
11.87
14.37
15.65
14.49
10.82
5.49
-0.14
-5.03
-8.87
-12.24
-16.30
-22.43
-31.68
-44.32
-59.49
-74.99
-87.58
-93.67
-90.53
-77.26
-55.41
-28.50
-0.85
23.83
43.41
57.36
66.14
70.29
69.98
65.34
56.93
46.32
35.84
27.87
23.87
23.79
26.10
28.52
28.97
26.40
21.09
14.26
7.33
1.34
-3.45
-7.50
-11.63
-16.65
-23.35
-32.23
-43.33
-55.76
-67.37
-75.00
-75.27
-65.92
-46.90
-20.76
8.20
35.40
57.47
73.02
82.31
86.50
86.80
84.15
79.44
73.87
68.90
65.95
65.73
67.91
71.11
73.45
73.23
69.51
62.34
52.57
41.40
30.00
19.12
8.97
-0.77
-10.79
-22.00
-35.21
-50.82
-68.10
-85.03
-98.39
-104.57
-100.91
-86.87
-64.49
-37.85
-11.71
10.03
25.27
33.76
36.40
34.34
28.56
19.87
9.44
-0.93
-9.18
-13.53
-13.34
-9.37
-3.58
1.59
4.21
3.52
0.05
-4.77
-9.33
-12.60
-14.43
-15.57
-17.21
-20.52
-26.24
-34.35
-43.86
-52.76
-58.25
-57.47
-48.27
-30.28
-5.11
23.94
53.05
79.00
99.90
114.97
123.76
125.55
119.35
104.61
82.18
54.79
26.46
1.25
-18.16
-31.36
-40.00
-46.72
-53.80
-62.25
-71.64
-80.67
-88.14
-93.52
-97.24
-100.26
-103.68
-108.32
-114.55
-122.30
-130.76
-138.31
-142.50
-140.55
-130.15
-110.44
-82.44
-48.86
-13.17
21.38
52.40
78.37
98.28
111.32
117.02
115.76
109.21
100.19
91.95
87.16
86.97
90.77
96.63
102.22
105.76
106.57
104.92
101.52
96.77
90.28
80.87
66.99
47.45
22.00
-8.27
-40.96
-72.66
-99.49
-117.82
-125.07
-120.38
-104.91
-81.72
-55.11
-29.57
-8.67
5.59
12.97
14.57
12.16
7.53
2.28
-2.27
-4.91
-4.77
-1.54
4.10
10.37
14.77
14.82
9.17
-1.90
-16.42
-31.66
-45.12
-55.49
-62.87
-68.41
-73.85
-80.64
-89.51
-99.90
-109.84
-116.24
-115.71
-105.78
-85.90
-57.94
-25.66
6.43
34.38
55.74
69.61
76.24
76.39
71.04
61.41
49.19
36.45
25.42
17.78
14.16
13.89
15.28
16.30
15.40
12.09
6.96
1.09
-4.63
-10.10
-16.00
-23.44
-33.29
-45.58
-59.23
-72.11
-81.44
-84.46
-79.26
-65.45
-44.54
-19.48
6.13
29.30
48.33
62.97
73.63
80.72
83.99
82.84
77.10
67.70
56.76
46.93
40.19
36.85
35.35
33.01
27.21
16.54
1.30
-16.74
-34.99
-50.92
-62.50
-68.65
-69.45
-66.21
-61.21
-56.89
-54.73
-54.32
-53.18
-47.72
-34.94
-14.09
12.70
41.02
65.88
83.45
92.05
92.14
85.58
74.90
62.86
52.33
46.23
47.00
55.78
71.73
91.99
112.40
128.82
138.35
140.04
134.71
124.31
111.13
97.17
83.93
72.22
62.15
53.12
44.02
33.73
21.92
9.65
-0.67
-6.07
-4.27
5.11
20.28
37.76
53.75
65.38
71.28
71.49
66.71
57.76
45.56
31.40
17.27
5.57
-1.88
-4.83
-5.14
-6.05
-10.88
-21.38
-37.11
-55.91
-75.19
-93.40
-110.58
-127.90
-146.63
-167.23
-189.05
-210.72
-230.82
-248.07
-261.11
-267.99
-266.22
-253.37
-228.33
-192.12
-148.10
-101.03
-55.68
-15.68
16.91
41.39
57.78
66.61
68.95
66.72
62.57
59.30
59.06
62.61
69.37
77.85
86.38
93.72
99.16
102.42
103.37
102.05
98.76
94.18
89.20
84.47
79.94
74.85
68.26
60.06
51.69
46.13
46.85
56.31
74.64
99.36
126.12
150.21
167.89
177.05
177.17
168.85
153.48
133.16
110.72
89.36
71.99
60.26
53.82
50.41
46.76
39.98
28.95
14.70
-0.15
-12.82
-21.88
-27.99
-33.53
-41.44
-53.67
-70.29
-89.47
-108.27
-123.76
-133.91
-137.90
-135.71
-127.73
-114.19
-95.09
-70.55
-41.50
-10.34
18.85
41.04
51.65
48.29
31.74
5.99
-23.03
-49.37
-68.84
-80.08
-84.55
-85.80
-88.12
-95.20
-109.03
-129.48
-154.54
-181.21
-206.49
-228.21
-245.42
-258.15
-266.94
-272.19
-273.78
-270.98
-262.52
-246.97
-223.09
-190.18
-148.51
-99.60
-46.28
7.63
57.83
100.23
131.62
150.26
156.32
151.85
140.39
126.08
112.63
102.38
95.80
91.57
87.15
79.82
67.66
50.25
28.91
6.34
-14.20
-29.72
-38.35
-39.89
-35.86
-29.13
-23.28
-21.58
-26.00
-36.26
-49.50
-60.72
-64.19
-55.36
-32.59
2.12
43.80
86.25
124.03
153.91
175.29
189.40
198.40
204.53
209.84
215.87
223.37
231.76
238.85
241.36
236.01
220.98
196.66
165.54
131.13
96.50
63.22
31.22
-0.64
-33.69
-68.59
-104.94
-141.41
-176.05
-206.77
-231.77
-250.05
-261.52
-266.76
-266.37
-260.33
-247.58
-226.26
-194.56
-151.85
-99.49
-41.00
18.51
73.56
119.46
153.24
173.87
182.04
179.64
169.16
153.36
134.89
116.20
99.20
85.15
74.49
66.86
61.22
56.16
50.29
42.73
33.32
22.73
12.05
2.30
-6.10
-13.49
-20.92
-29.59
-40.41
-53.63
-68.65
-84.17
-98.27
-108.76
-113.54
-111.08
-100.93
-84.03
-62.52
-39.22
-16.94
2.13
16.53
25.46
28.48
25.53
17.04
4.36
-10.14
-23.27
-31.73
-33.07
-26.66
-14.21
0.64
13.35
20.11
19.10
10.95
-1.64
-15.24
-26.91
-35.12
-40.13
-43.51
-47.51
-54.21
-64.70
-78.40
-92.79
-103.68
-106.40
-97.41
-75.82
-43.97
-6.79
29.91
61.34
84.89
100.19
108.25
110.41
107.60
100.60
90.40
78.78
68.14
60.79
57.91
58.99
61.91
63.74
61.96
55.48
44.99
32.56
20.59
10.81
3.62
-1.85
-7.19
-14.05
-23.64
-36.58
-52.79
-71.28
-89.92
-105.43
-113.88
-111.85
-97.78
-72.75
-40.43
-5.85
26.13
52.13
70.46
80.81
83.45
78.87
67.97
52.48
35.14
19.23
7.62
1.81
1.35
4.19
7.59
9.21
7.99
4.14
-1.29
-7.16
-12.83
-18.36
-24.34
-31.60
-40.92
-52.90
-67.67
-84.47
-101.27
-114.75
-120.90
-116.36
-99.77
-72.58
-38.70
-3.20
29.47
56.55
77.09
91.22
99.23
101.15
97.17
88.23
76.41
64.57
55.25
49.63
47.22
46.16
44.38
40.62
34.91
28.35
22.26
17.39
13.56
9.75
4.69
-2.72
-13.11
-26.53
-42.28
-58.71
-73.06
-81.90
-81.95
-71.35
-50.62
-22.59
8.47
38.25
63.67
83.10
95.92
101.81
100.37
91.58
76.42
57.28
37.57
20.58
8.27
0.68
-3.79
-7.38
-11.82
-17.64
-24.29
-30.79
-36.41
-41.22
-45.99
-52.00
-60.68
-73.09
-89.38
-108.18
-126.38
-139.42
-142.73
-133.21
-110.71
-78.24
-40.90
-4.09
28.11
53.60
71.91
83.25
87.82
85.76
77.70
65.15
50.47
36.30
24.71
16.79
12.59
11.65
13.45
17.66
24.10
32.32
41.45
50.12
56.62
59.20
56.38
47.43
32.90
14.95
-2.78
-16.07
-21.50
-17.70
-5.88
10.61
27.55
41.26
49.43
51.26
46.87
36.79
21.77
2.91
-18.00
-38.59
-56.29
-69.06
-75.91
-77.11
-74.00
-68.49
-62.48
-57.41
-53.98
-52.18
-51.65
-51.98
-53.28
-56.23
-61.80
-70.51
-81.55
-92.38
-99.08
-97.61
-85.37
-62.32
-31.23
3.29
36.33
64.15
84.77
97.85
103.95
103.95
98.93
90.30
79.94
70.00
62.22
57.26
54.45
52.22
48.92
43.77
37.20
30.56
25.18
21.65
19.44
17.08
12.83
5.23
-6.39
-21.66
-38.99
-55.55
-67.72
-71.74
-64.91
-46.65
-19.00
13.70
45.98
72.71
90.28
97.23
94.08
82.88
66.58
48.65
32.76
22.35
20.12
27.36
43.50
66.07
91.34
115.20
134.11
145.85
149.59
145.71
135.32
119.83
100.55
78.42
53.91
27.28
-0.88
-29.23
-55.30
-76.04
-88.56
-91.29
-84.48
-70.13
-51.29
-31.09
-12.15
3.62
14.88
20.77
20.92
15.73
6.57
-4.39
-14.71
-22.45
-26.77
-28.18
-28.35
-29.33
-32.79
-39.36
-48.43
-58.57
-68.20
-76.30
-82.92
-89.11
-96.48
-106.57
-120.00
-135.82
-151.26
-162.10
-163.84
-153.20
-129.58
-95.50
-55.93
-16.65
17.63
44.36
63.12
74.71
80.15
80.20
75.49
67.24
57.54
49.09
44.28
44.28
48.67
55.69
63.03
68.51
70.56
68.18
60.86
48.51
31.64
11.48
-10.21
-31.61
-51.55
-69.80
-86.70
-102.26
-115.39
-123.71
-124.39
-115.58
-97.49
-72.70
-45.21
-19.04
2.96
19.56
30.70
36.72
37.82
34.24
26.71
16.95
7.58
1.40
0.39
4.87
13.44
23.46
32.20
37.72
39.30
37.36
32.81
26.54
19.01
10.30
0.12
-11.93
-26.20
-42.51
-59.67
-75.17
-85.44
-86.91
-77.36
-57.10
-29.14
1.71
30.50
53.56
69.14
77.16
78.29
73.34
63.14
49.00
33.06
18.16
7.02
1.17
0.33
2.50
4.91
5.19
2.27
-3.38
-10.31
-16.96
-22.46
-26.98
-31.68
-38.18
-47.96
-61.60
-78.13
-94.79
-107.37
-111.34
-103.49
-83.22
-53.03
-17.74
17.15
47.26
70.18
85.48
93.78
95.88
92.41
84.25
73.02
61.15
51.31
45.38
43.65
44.70
46.13
45.65
42.08
35.67
27.65
19.49
12.03
5.18
-2.04
-10.93
-22.65
-37.78
-56.02
-75.89
-94.63
-108.44
-113.27
-106.15
-86.41
-56.31
-20.68
14.68
44.71
66.39
78.94
83.26
80.90
73.35
62.09
48.90
36.10
26.14
20.79
20.34
23.43
27.62
30.43
30.46
27.80
23.58
19.15
14.99
10.33
3.42
-7.63
-23.99
-45.49
-70.39
-95.61
-117.07
-130.37
-131.61
-118.58
-91.60
-53.89
-11.05
30.40
64.57
87.58
97.95
96.27
84.51
65.48
42.57
19.57
0.30
-12.14
-16.31
-13.08
-5.37
2.86
8.01
8.13
3.33
-4.71
-13.78
-22.13
-29.09
-34.87
-40.21
-45.99
-53.03
-62.06
-73.32
-86.26
-99.05
-108.85
-112.61
-108.41
-96.42
-78.92
-59.50
-41.59
-27.41
-17.73
-12.34
-10.95
-13.62
-20.57
-31.64
-45.77
-60.93
-74.38
-83.31
-85.41
-79.31
-64.94
-43.71
-18.40
7.39
30.07
47.08
57.37
61.34
59.98
54.05
43.59
28.76
10.97
-6.26
-17.66
-18.02
-4.60
21.26
54.34
87.47
114.41
131.83
139.73
140.21
135.57
127.20
115.54
101.05
85.14
70.35
59.43
54.00
53.66
55.97
57.54
55.48
48.55
37.56
24.67
12.28
1.94
-6.17
-13.26
-21.28
-32.16
-47.04
-65.50
-85.30
-102.61
-112.94
-112.60
-100.16
-77.12
-47.50
-16.41
11.72
34.26
50.58
61.22
66.93
68.12
65.08
58.67
50.72
43.80
40.24
41.07
45.48
51.17
55.43
56.29
53.33
47.64
41.03
35.09
30.51
26.90
23.05
17.50
8.90
-3.59
-20.01
-39.21
-58.72
-74.94
-83.99
-82.93
-70.90
-49.54
-22.51
5.75
31.43
52.17
67.19
76.61
80.77
79.85
74.02
63.91
50.99
37.60
26.32
19.17
16.86
18.49
21.93
24.66
24.84
21.94
16.72
10.70
5.26
0.91
-2.85
-7.26
-13.70
-23.19
-36.07
-51.75
-68.63
-83.97
-94.33
-96.37
-87.98
-69.31
-42.96
-13.25
15.29
39.35
57.50
69.94
77.37
80.08
77.73
69.88
57.05
41.19
25.46
13.02
5.80
3.63
4.58
5.86
5.19
1.71
-3.97
-10.31
-15.77
-19.47
-21.58
-22.97
-24.89
-28.49
-34.61
-43.75
-55.79
-69.81
-83.73
-94.55
-98.91
-94.26
-79.94
-57.67
-31.07
-4.48
18.47
35.86
47.41
53.79
55.80
53.83
48.15
39.42
29.26
20.00
14.06
13.03
16.95
24.29
32.53
39.23
42.92
43.58
42.36
40.84
40.16
40.46
40.90
40.14
36.95
30.58
20.80
7.88
-7.26
-22.94
-36.66
-45.54
-47.31
-41.33
-29.14
-14.04
0.16
10.47
15.61
15.87
12.38
6.23
-1.85
-11.22
-20.83
-28.95
-33.45
-32.73
-26.35
-15.51
-2.66
9.39
18.40
23.43
24.93
24.21
22.64
21.08
19.58
17.53
14.12
8.61
0.54
-10.31
-23.72
-38.81
-53.66
-65.33
-70.54
-66.61
-52.72
-30.35
-3.01
24.96
49.76
69.06
82.14
89.25
90.86
87.20
78.49
65.55
50.28
35.56
24.43
18.96
19.30
23.59
28.71
31.55
30.18
24.38
15.38
4.96
-5.43
-15.18
-24.56
-34.24
-44.86
-56.72
-69.85
-83.99
-98.50
-111.94
-122.02
-125.82
-120.70
-105.40
-80.82
-50.03
-17.30
13.28
38.80
57.91
70.30
76.05
75.32
68.46
56.60
41.90
27.32
15.73
8.96
7.12
8.66
11.09
11.93
9.70
4.41
-2.70
-9.73
-15.10
-18.18
-19.52
-20.64
-23.36
-29.27
-39.27
-53.21
-69.70
-86.12
-98.87
-104.19
-99.26
-83.38
-58.45
-28.48
1.68
27.92
47.80
60.66
66.96
67.53
63.23
55.14
44.90
34.78
27.24
24.04
25.62
30.92
37.82
44.11
48.23
49.67
48.80
46.32
42.86
38.64
33.63
27.57
20.22
11.23
0.08
-13.90
-31.18
-51.31
-72.41
-91.11
-103.24
-105.16
-95.10
-73.90
-44.82
-12.55
18.14
43.45
61.11
70.28
71.25
65.13
53.77
39.64
25.50
13.86
6.32
3.14
3.26
4.79
5.79
4.97
2.16
-1.85
-5.80
-8.69
-10.41
-11.99
-15.54
-23.57
-38.00
-59.11
-84.80
-110.63
-130.88
-140.30
-135.87
-117.87
-89.69
-56.67
-24.20
3.68
24.91
39.12
46.73
48.30
44.32
35.60
23.69
10.98
0.19
-6.47
-8.20
-5.85
-1.42
2.76
5.16
5.43
4.32
2.94
1.93
1.01
-0.90
-5.11
-12.57
-23.56
-37.62
-53.58
-69.61
-83.23
-91.51
-91.78
-82.53
-64.30
-39.83
-13.36
10.82
29.61
41.82
47.94
49.19
46.79
41.53
34.16
25.80
18.13
12.96
11.45
13.46
17.57
21.62
23.70
23.02
20.11
16.43
13.43
11.77
10.98
9.56
5.74
-2.02
-14.44
-31.11
-50.32
-69.06
-83.51
-89.91
-85.80
-71.00
-47.95
-20.88
5.60
28.01
44.76
55.99
62.67
65.62
65.15
61.28
54.35
45.40
36.09
28.24
23.09
20.94
21.13
22.34
23.31
23.18
21.78
19.41
16.45
12.97
8.52
2.29
-6.58
-18.65
-33.88
-51.40
-69.32
-84.87
-94.86
-96.51
-88.44
-71.32
-47.81
-21.75
3.12
24.20
40.35
51.47
57.78
59.32
56.02
48.29
37.57
26.30
17.24
12.52
12.73
16.76
22.29
26.81
28.68
27.52
24.15
19.83
15.57
11.56
7.26
1.73
-5.91
-16.17
-28.89
-43.10
-56.86
-67.48
-72.04
-68.22
-55.23
-34.20
-8.01
19.63
45.20
66.17
81.16
89.67
91.71
87.65
78.28
65.13
50.36
36.45
25.45
18.31
14.66
13.00
11.42
8.43
3.49
-3.01
-10.11
-16.93
-23.05
-28.69
-34.54
-41.46
-50.18
-60.92
-72.98
-84.54
-92.77
-94.54
-87.48
-70.99
-46.51
-17.22
13.09
41.21
64.97
83.24
95.47
101.30
100.69
94.32
84.00
72.47
62.74
56.88
55.32
56.74
58.84
59.47
57.53
53.22
47.57
41.53
35.43
28.87
21.11
11.51
-0.26
-14.19
-29.89
-46.45
-62.01
-73.79
-78.57
-73.82
-59.00
-36.04
-8.94
17.57
39.58
54.89
63.03
64.58
60.43
51.45
38.76
24.05
9.65
-1.93
-8.92
-10.96
-9.35
-6.44
-4.64
-5.45
-8.91
-13.96
-19.09
-23.30
-26.58
-29.97
-35.13
-43.75
-57.00
-74.90
-95.91
-116.69
-132.42
-137.91
-129.13
-104.84
-67.23
-21.48
25.87
68.75
102.85
126.03
137.80
138.77
130.37
114.91
95.54
75.82
58.78
45.94
36.88
29.64
21.72
11.33
-1.83
-16.59
-30.87
-42.72
-51.04
-56.00
-58.88
-61.50
-65.63
-72.59
-82.78
-95.56
-109.07
-120.37
-125.94
-122.69
-109.04
-85.69
-55.68
-23.46
6.44
30.67
47.55
56.84
59.19
55.51
47.03
35.36
22.73
11.53
3.67
-0.20
-0.92
-0.33
-0.34
-1.94
-4.82
-7.65
-9.00
-8.25
-6.03
-4.18
-4.97
-10.47
-21.82
-38.78
-59.48
-80.31
-96.55
-103.44
-97.84
-79.66
-52.15
-20.95
8.06
30.95
46.76
57.00
64.04
69.25
72.29
71.65
66.08
55.82
42.93
30.54
21.41
16.80
16.12
17.51
18.95
19.48
19.45
20.23
23.14
28.58
35.65
42.61
47.68
49.78
48.67
44.71
38.55
30.90
22.73
15.40
10.54
9.53
12.81
19.47
27.32
33.75
36.48
34.36
27.49
16.97
4.29
-9.07
-21.85
-33.17
-42.45
-49.39
-54.02
-56.69
-57.98
-58.58
-59.10
-59.83
-60.77
-61.70
-62.47
-63.23
-64.59
-67.65
-73.53
-82.70
-94.28
-105.61
-112.64
-111.07
-97.98
-73.09
-39.16
-1.01
36.11
68.13
93.11
110.79
121.78
126.60
125.41
118.41
106.50
91.66
76.64
64.06
55.48
50.98
49.31
48.68
47.65
45.64
42.96
40.32
38.32
37.04
35.92
33.95
29.83
22.27
10.36
-5.93
-25.35
-45.25
-62.08
-72.56
-74.78
-69.13
-58.06
-45.24
-34.21
-27.34
-25.56
-28.61
-35.65
-45.48
-56.66
-67.26
-75.00
-77.81
-74.49
-65.25
-51.64
-35.99
-20.58
-6.88
4.67
14.48
23.24
31.34
38.54
43.89
46.03
43.53
35.37
21.52
3.54
-15.41
-31.03
-39.15
-37.24
-25.44
-6.58
15.00
35.28
51.92
64.71
74.64
82.52
87.96
89.48
85.59
76.18
63.08
49.50
38.44
31.04
25.90
19.81
9.41
-6.76
-27.21
-47.84
-63.38
-69.31
-63.52
-47.03
-24.06
-1.35
13.13
12.03
-8.80
-48.10
-98.36
-147.28
-181.47
-190.91
-172.44
-130.50
-75.08
-17.85
31.54
67.61
89.31
98.80
99.74
96.01
90.91
86.77
84.87
85.32
87.25
89.08
89.15
86.14
79.72
70.70
60.88
52.43
47.02
44.84
44.32
42.22
34.57
18.10
-8.54
-43.71
-82.67
-118.42
-143.50
-152.23
-142.62
-117.25
-82.39
-45.91
-14.61
7.71
20.69
26.40
27.50
25.79
21.75
15.20
6.40
-3.32
-11.82
-17.27
-19.20
-18.92
-18.69
-20.50
-24.87
-30.76
-36.41
-40.45
-42.78
-44.47
-47.08
-51.94
-59.77
-70.88
-85.07
-101.36
-117.40
-129.12
-131.32
-119.37
-91.38
-49.67
-0.73
46.90
85.62
111.39
124.57
128.74
128.43
126.84
124.88
121.87
117.02
110.62
104.26
99.88
98.41
99.06
99.60
97.68
92.11
83.47
73.58
64.30
56.46
49.16
40.15
26.82
7.31
-18.48
-48.35
-78.10
-102.53
-116.83
-118.25
-107.00
-86.22
-60.80
-35.73
-14.41
1.96
13.98
23.01
30.08
35.41
38.55
38.78
35.61
28.98
19.59
8.91
-0.79
-6.93
-7.54
-2.02
8.33
20.66
31.65
38.73
40.86
38.54
33.05
25.51
16.28
5.05
-8.47
-23.72
-38.72
-50.36
-55.32
-51.36
-38.28
-18.11
5.48
28.50
47.80
61.66
69.70
72.14
69.30
61.40
49.09
33.97
18.90
7.45
2.74
6.14
16.40
29.72
41.01
45.65
41.25
28.44
10.48
-8.19
-23.79
-34.52
-40.92
-45.31
-50.62
-59.32
-72.50
-89.47
-107.74
-123.46
-132.42
-131.23
-118.55
-95.61
-65.99
-34.38
-5.20
18.52
35.53
45.86
50.21
49.42
44.53
36.96
28.61
21.51
17.21
16.21
17.83
20.51
22.53
22.76
20.91
17.59
13.78
10.33
7.60
5.30
2.59
-1.63
-8.52
-18.95
-33.22
-50.66
-69.29
-85.85
-96.37
-97.20
-86.38
-64.52
-34.89
-2.62
26.94
49.74
63.89
69.66
68.65
62.89
54.19
44.08
33.91
24.97
18.37
14.65
13.46
13.66
13.69
12.07
8.00
1.46
-6.84
-15.81
-24.33
-31.51
-36.81
-40.23
-42.23
-43.71
-45.82
-49.65
-55.78
-64.02
-73.14
-81.13
-85.57
-84.17
-75.40
-58.89
-35.66
-8.02
20.86
47.67
69.71
85.52
95.09
99.57
100.56
99.48
96.98
93.13
87.76
81.05
73.65
66.51
60.25
54.82
49.52
43.32
35.60
26.48
16.90
8.09
1.04
-3.99
-7.41
-10.13
-13.36
-18.25
-25.63
-35.48
-46.47
-55.79
-59.75
-55.01
-39.96
-15.64
14.57
46.20
75.21
99.14
117.14
129.22
135.30
134.93
127.58
113.63
95.04
75.32
58.55
47.70
43.37
43.41
43.78
40.37
30.78
15.25
-3.80
-23.19
-40.54
-55.21
-68.06
-80.55
-93.71
-107.76
-122.17
-135.97
-147.92
-156.45
-159.76
-156.21
-145.14
-127.44
-105.68
-83.46
-64.27
-50.50
-42.94
-40.95
-43.08
-47.58
-52.72
-56.91
-58.76
-57.35
-52.47
-44.72
-35.28
-25.48
-16.32
-8.18
-1.00
5.43
11.10
15.72
18.74
19.66
18.29
14.80
9.66
3.55
-2.83
-8.75
-13.83
-18.19
-22.48
-27.41
-33.10
-38.42
-41.12
-38.70
-29.66
-14.56
3.90
21.83
35.52
42.72
43.10
37.88
29.13
19.20
10.24
4.02
1.71
3.45
8.23
14.18
19.21
21.86
21.61
18.88
14.64
9.73
4.61
-0.74
-6.66
-13.74
-22.57
-33.50
-46.21
-59.15
-69.64
-74.25
-70.04
-55.68
-32.14
-2.26
30.24
61.83
89.88
112.48
128.06
135.30
133.47
123.25
107.08
88.86
72.73
61.59
56.18
55.10
55.79
55.69
53.30
48.43
41.80
34.37
26.84
19.32
11.54
3.02
-6.67
-17.83
-30.69
-45.28
-61.13
-77.00
-90.72
-99.61
-101.20
-94.18
-78.87
-57.14
-31.70
-5.30
19.86
42.21
60.52
73.71
80.83
81.40
75.85
65.69
53.37
41.73
33.14
28.93
28.92
31.59
34.61
35.73
33.62
28.32
21.11
13.74
7.57
2.86
-1.38
-6.91
-15.39
-27.45
-42.16
-56.95
-68.33
-72.90
-68.54
-55.15
-34.73
-10.66
13.44
34.77
51.88
64.50
72.92
77.42
77.96
74.41
66.89
55.93
42.30
26.81
9.96
-7.86
-26.05
-43.50
-58.59
-69.58
-75.18
-75.11
-70.11
-61.70
-51.70
-41.96
-34.22
-30.22
-31.58
-39.33
-53.18
-71.02
-88.88
-101.90
-105.73
-98.10
-79.56
-53.25
-23.87
3.97
26.81
42.99
52.43
56.10
55.46
52.05
47.19
41.88
36.57
31.01
24.41
15.72
4.08
-10.73
-28.13
-46.83
-65.14
-81.48
-94.85
-105.29
-114.20
-124.14
-138.06
-157.84
-182.94
-209.70
-232.09
-243.65
-239.83
-219.46
-184.66
-139.29
-87.36
-32.15
23.38
75.60
119.88
151.45
167.28
167.68
156.67
140.40
124.68
112.91
105.35
100.16
95.10
89.01
82.23
75.84
70.67
66.55
62.43
57.01
49.44
39.54
27.69
14.38
0.09
-14.51
-28.20
-39.14
-45.33
-45.34
-39.03
-27.77
-13.93
-0.01
12.23
22.02
29.31
34.27
36.87
36.91
34.43
30.15
25.52
22.36
22.16
25.40
31.41
38.65
45.47
50.78
54.39
56.87
59.06
61.47
64.02
65.93
66.02
63.08
56.38
46.13
33.75
21.75
13.26
11.06
16.60
29.36
46.99
66.03
83.07
95.67
102.75
104.26
100.73
92.76
81.04
66.68
51.43
37.50
26.96
20.90
18.97
19.53
20.34
19.59
16.45
11.16
4.44
-3.06
-11.26
-20.68
-32.13
-46.32
-63.46
-82.81
-102.45
-119.32
-129.76
-130.54
-120.01
-98.92
-70.38
-38.89
-9.02
15.79
33.80
44.79
49.55
49.36
45.79
40.51
35.23
31.27
29.21
28.74
28.86
28.39
26.59
23.40
19.37
15.34
11.88
8.93
5.75
1.10
-6.50
-18.34
-35.14
-56.48
-80.38
-103.27
-120.47
-127.43
-121.19
-101.50
-71.03
-34.51
2.77
36.46
63.89
84.07
97.07
103.44
103.97
99.76
92.37
83.64
75.24
68.01
61.68
55.09
46.72
35.58
21.69
6.03
-9.90
-24.84
-38.19
-50.16
-61.49
-73.00
-85.24
-98.17
-111.00
-122.11
-129.28
-130.16
-123.13
-108.01
-86.41
-61.33
-36.27
-14.20
3.10
14.89
21.20
22.22
18.28
10.10
-0.89
-12.53
-22.54
-29.24
-32.25
-32.43
-31.49
-31.06
-31.96
-34.02
-36.44
-38.45
-39.90
-41.42
-44.16
-49.18
-57.06
-67.63
-79.91
-92.24
-102.43
-107.94
-106.47
-96.53
-78.15
-53.18
-24.92
2.75
26.42
43.98
54.80
59.36
58.72
54.14
46.99
38.83
31.33
26.04
23.82
24.57
27.17
29.91
31.08
29.70
25.82
20.48
15.26
11.55
9.94
9.85
9.64
7.20
1.01
-8.95
-20.72
-30.80
-35.26
-31.31
-18.27
2.16
26.61
51.31
73.15
90.19
101.49
106.66
105.46
97.91
84.68
67.48
48.96
32.04
19.02
10.71
6.34
4.04
1.78
-1.69
-6.48
-11.64
-15.93
-18.48
-19.32
-19.50
-20.81
-25.23
-34.03
-47.01
-62.00
-75.14
-81.97
-79.04
-65.35
-42.85
-15.70
11.25
34.06
50.70
60.81
65.04
64.24
59.25
51.10
41.37
32.01
24.78
20.45
18.54
17.73
16.71
14.95
12.95
11.76
12.15
14.07
16.62
18.54
18.89
17.35
14.17
9.69
4.04
-2.90
-11.12
-19.96
-27.98
-33.13
-33.54
-28.27
-17.83
-3.95
10.98
24.88
36.48
45.39
51.71
55.56
56.79
55.18
50.80
44.29
36.70
29.12
22.16
15.81
9.59
3.13
-3.57
-10.14
-16.10
-21.22
-25.66
-29.83
-34.17
-39.08
-44.99
-52.35
-61.29
-71.04
-79.54
-83.56
-79.82
-66.27
-43.41
-14.38
15.99
42.88
62.96
75.10
80.04
79.52
75.27
68.67
60.77
52.64
45.46
40.43
38.27
38.93
41.51
44.56
46.65
47.06
45.94
44.11
42.18
39.86
35.73
27.81
14.62
-3.82
-25.60
-47.33
-65.17
-75.92
-77.70
-70.28
-54.72
-32.98
-7.65
18.31
41.68
59.36
68.87
69.00
60.14
44.34
24.84
5.26
-11.24
-22.78
-28.98
-30.70
-29.44
-26.68
-23.53
-20.52
-17.78
-15.21
-12.62
-9.87
-7.00
-4.47
-3.19
-4.48
-9.71
-19.69
-33.92
-50.27
-65.22
-74.76
-75.81
-67.23
-50.29
-28.07
-4.37
17.57
35.73
49.40
58.73
64.04
65.55
63.38
57.87
49.76
40.22
30.65
22.30
16.03
12.05
9.93
8.76
7.51
5.38
2.03
-2.34
-7.17
-11.89
-16.17
-20.11
-24.32
-29.66
-36.76
-45.51
-54.54
-61.34
-62.88
-56.72
-42.11
-20.45
5.13
30.95
53.95
72.48
86.17
95.32
100.11
100.53
96.69
89.52
80.90
73.18
68.17
66.29
66.31
66.03
63.46
57.91
50.51
43.95
41.44
45.58
57.37
75.57
96.80
116.15
128.14
127.90
112.40
81.27
37.23
-14.29
-66.13
-110.78
-142.16
-156.90
-155.08
-139.94
-116.80
-91.49
-68.89
-52.06
-42.09
-38.56
-40.00
-44.53
-49.99
-54.46
-56.38
-54.97
-50.39
-43.56
-35.96
-29.15
-24.38
-22.25
-22.63
-24.78
-27.65
-30.40
-32.68
-34.98
-38.33
-43.91
-52.39
-63.32
-74.94
-84.33
-88.30
-84.30
-71.45
-51.04
-26.29
-1.48
19.37
33.60
40.43
40.54
35.32
25.94
13.23
-2.17
-19.27
-36.48
-51.95
-64.36
-73.52
-80.60
-87.54
-96.12
-107.01
-119.48
-131.70
-141.67
-147.97
-150.33
-149.63
-147.54
-146.06
-146.77
-150.24
-155.52
-160.13
-160.62
-153.62
-137.13
-111.30
-78.51
-42.53
-7.37
23.80
49.04
67.45
78.80
83.17
81.15
74.11
64.31
54.61
47.74
45.40
47.72
53.27
59.65
64.46
66.12
64.40
60.26
55.31
51.02
48.04
46.02
43.74
39.59
32.13
20.75
6.16
-9.47
-22.75
-29.88
-28.02
-16.30
3.58
27.92
52.26
72.97
88.20
97.95
103.24
105.11
103.95
99.69
92.37
82.82
72.68
63.97
58.14
55.49
54.97
54.67
52.66
47.84
40.31
31.28
22.36
14.80
8.84
3.65
-2.31
-10.63
-22.35
-37.43
-54.56
-71.26
-84.21
-90.15
-86.78
-73.67
-52.58
-27.07
-1.39
20.82
37.43
48.02
53.36
54.67
53.20
50.08
46.53
43.74
42.61
43.30
45.06
46.58
46.54
44.34
40.29
35.36
30.68
27.02
24.61
23.19
22.22
20.99
18.59
13.89
5.62
-7.21
-24.49
-44.41
-63.24
-75.94
-77.85
-66.48
-42.92
-11.76
20.44
47.40
65.14
72.67
71.48
64.07
52.68
38.92
23.96
9.37
-2.85
-10.62
-12.71
-9.45
-2.83
4.17
8.69
9.09
5.32
-1.31
-8.95
-16.19
-22.67
-29.17
-37.15
-48.00
-62.31
-79.37
-97.16
-112.63
-122.44
-123.87
-115.59
-97.95
-73.06
-44.17
-14.97
11.11
31.37
44.20
48.98
46.22
37.40
24.84
11.36
-0.36
-8.44
-12.22
-12.34
-10.37
-8.13
-6.96
-7.48
-9.48
-12.38
-15.79
-19.69
-24.42
-30.34
-37.66
-46.25
-55.71
-65.40
-74.28
-80.74
-82.62
-77.66
-64.50
-43.42
-16.75
11.69
37.77
58.30
71.99
79.16
81.13
79.34
74.72
67.82
59.25
50.01
41.63
35.72
33.45
34.89
39.03
44.15
48.38
50.64
50.82
49.77
48.65
48.13
47.96
46.92
43.39
36.32
26.09
14.87
6.06
3.36
9.24
24.20
46.54
73.04
100.39
126.10
149.08
169.32
187.11
202.26
214.02
221.51
224.63
224.58
223.78
225.03
230.35
240.17
252.98
265.97
275.96
280.46
278.20
269.05
253.81
233.62
209.75
183.42
155.69
127.40
98.94
70.40
41.50
11.96
-18.40
-49.66
-81.71
-114.52
-148.20
-182.91
-218.95
-256.94
-297.86
-342.93
-392.73
-446.15
-499.63
-547.33
-582.53
-599.68
-596.41
-574.10
-537.32
-491.85
-442.91
-394.28
-348.20
-306.19
-269.51
-238.94
-214.34
-194.40
-177.05
-160.54
-144.49
-130.21
-119.59
-114.02
-112.64
-112.10
-107.49
-93.95
-68.50
-31.00
15.65
66.19
114.04
152.71
177.33
185.71
179.19
162.15
140.51
120.07
104.66
95.67
92.52
93.66
97.43
102.37
107.03
109.92
109.75
105.88
98.73
89.68
80.48
72.22
65.24
58.85
52.03
44.06
34.92
25.43
16.87
10.64
7.83
9.02
14.24
22.82
33.60
44.84
54.68
61.31
63.31
60.30
52.87
42.58
31.42
21.18
12.94
6.88
2.55
-0.75
-3.47
-5.71
-7.45
-8.78
-10.23
-12.58
-16.57
-22.61
-30.55
-39.91
-50.16
-60.88
-71.75
-82.17
-90.88
-96.01
-95.33
-86.97
-70.14
-45.59
-15.50
17.05
48.37
74.91
93.53
102.15
100.29
89.47
73.03
55.24
40.16
30.29
26.08
26.23
28.51
30.94
32.39
32.61
31.90
30.48
28.46
25.68
22.02
17.37
11.52
4.01
-5.38
-16.35
-27.49
-36.42
-40.29
-36.83
-25.36
-7.09
15.00
37.41
57.01
71.92
81.62
86.38
86.83
83.55
77.26
69.02
60.40
53.20
48.87
48.06
50.26
53.94
57.21
58.40
56.84
52.83
47.37
41.55
35.87
30.01
23.04
13.90
2.08
-12.04
-27.10
-41.10
-51.83
-57.45
-57.00
-50.43
-38.71
-23.44
-6.52
10.22
25.22
37.16
45.01
47.99
45.91
39.48
30.21
20.20
11.40
4.90
0.75
-1.97
-4.40
-7.36
-11.07
-15.17
-19.31
-23.44
-27.97
-33.45
-40.25
-48.49
-58.01
-68.66
-80.13
-91.76
-102.20
-109.31
-110.65
-104.31
-89.77
-68.48
-43.39
-18.24
3.56
19.66
29.05
32.03
29.82
24.33
17.81
12.36
9.54
9.88
12.91
17.41
21.89
25.20
26.78
26.62
25.22
23.26
21.43
20.32
19.89
19.27
16.70
9.88
-3.07
-22.12
-44.53
-65.00
-77.40
-77.29
-63.91
-40.75
-14.01
10.10
27.79
38.56
44.29
47.37
48.93
48.55
45.25
38.82
30.79
23.86
20.64
22.09
26.97
32.36
35.17
33.57
27.80
19.87
12.39
7.08
4.10
2.05
-1.26
-7.51
-17.33
-29.86
-43.02
-54.25
-61.06
-61.66
-55.41
-42.89
-25.80
-6.50
12.46
29.14
42.26
51.35
56.52
58.10
56.71
53.24
48.89
45.01
42.72
42.47
43.86
45.88
47.36
47.45
46.01
43.44
40.41
37.39
34.28
30.73
26.19
20.32
13.07
4.54
-4.98
-15.01
-24.64
-32.37
-36.35
-34.91
-27.41
-14.64
1.19
17.09
30.43
39.57
44.29
45.42
44.13
41.46
37.90
33.66
28.97
24.31
20.43
17.93
17.01
17.11
17.23
16.34
13.72
9.45
4.08
-1.65
-7.16
-12.47
-18.14
-25.05
-33.97
-44.96
-56.98
-67.86
-74.95
-75.95
-69.81
-57.36
-40.77
-22.94
-6.36
7.33
17.32
23.25
24.75
21.69
14.54
4.76
-5.19
-12.74
-16.04
-14.88
-10.65
-5.79
-2.88
-3.59
-8.23
-15.72
-24.23
-31.97
-38.01
-42.60
-47.05
-52.99
-61.63
-72.94
-85.48
-96.67
-103.54
-103.48
-94.97
-78.04
-54.37
-27.13
-0.26
22.41
38.21
46.22
47.46
44.06
38.53
32.77
27.88
24.34
22.43
22.45
24.55
28.47
33.26
37.54
40.04
40.11
38.06
34.73
31.09
27.74
24.42
20.21
13.81
4.29
-8.32
-22.65
-35.98
-44.98
-46.70
-39.64
-24.44
-3.71
18.85
39.57
55.91
66.88
72.83
74.75
73.69
70.44
65.64
60.03
54.53
50.13
47.52
46.72
47.08
47.49
46.90
44.75
41.22
37.06
33.10
29.81
26.91
23.39
17.94
9.44
-2.29
-16.23
-30.20
-41.45
-47.48
-46.77
-39.33
-26.52
-10.63
5.81
20.59
32.20
39.79
43.15
42.43
38.24
31.48
23.39
15.35
8.59
3.85
1.14
-0.21
-1.26
-3.01
-5.97
-10.09
-14.78
-19.42
-23.56
-27.25
-31.11
-36.08
-43.08
-52.36
-63.17
-73.51
-80.61
-81.76
-75.28
-61.21
-41.42
-18.99
2.74
21.14
34.69
43.00
46.48
45.81
41.87
35.68
28.46
21.67
16.56
13.95
13.79
15.26
17.11
18.04
17.28
14.70
10.68
5.81
0.44
-5.47
-12.41
-21.07
-31.94
-44.93
-59.02
-72.22
-81.94
-85.64
-81.65
-69.82
-51.68
-29.93
-7.70
12.38
28.62
40.17
46.88
48.84
46.51
40.93
33.65
26.70
21.89
20.22
21.43
24.11
26.27
26.18
23.14
17.60
10.79
4.12
-1.60
-6.41
-11.11
-16.91
-24.96
-35.87
-49.46
-64.51
-78.54
-88.11
-89.56
-80.34
-60.30
-32.24
-1.20
27.28
49.28
63.59
71.54
75.57
77.63
78.33
77.23
73.87
68.77
63.45
59.70
58.49
59.39
60.78
60.78
58.32
53.47
47.29
41.17
35.93
31.47
26.91
20.98
12.55
1.03
-13.44
-29.88
-46.38
-60.39
-69.12
-70.29
-63.00
-48.06
-27.96
-5.99
14.71
31.91
44.59
52.65
56.42
56.39
53.10
47.41
40.59
34.22
29.75
27.92
28.52
30.41
32.02
31.95
29.44
24.50
17.77
10.18
2.61
-4.36
-10.51
-16.06
-21.57
-27.86
-35.80
-45.85
-57.70
-69.82
-79.80
-84.89
-83.00
-73.54
-57.77
-38.33
-18.37
-0.42
14.14
25.13
32.91
37.84
39.95
39.11
35.63
30.55
25.59
22.56
22.52
25.31
29.51
33.06
34.24
32.35
27.91
22.21
16.62
11.78
7.49
2.86
-3.19
-11.42
-22.01
-34.49
-47.78
-60.28
-70.08
-75.24
-74.35
-66.97
-53.99
-37.43
-19.84
-3.55
9.87
19.70
25.89
28.59
28.00
24.48
18.77
12.11
6.02
1.84
0.21
0.84
2.66
4.30
4.66
3.17
-0.01
-4.43
-9.48
-14.70
-19.89
-25.13
-30.71
-37.24
-45.42
-55.80
-68.19
-81.30
-92.75
-99.58
-99.29
-90.79
-74.96
-54.47
-32.78
-13.06
2.78
14.25
21.80
26.14
27.59
26.19
22.09
16.14
9.97
5.54
4.40
6.85
11.83
17.31
21.15
22.12
20.10
16.02
11.16
6.50
2.40
-1.37
-5.31
-9.88
-15.40
-22.04
-29.88
-38.68
-47.59
-55.11
-59.04
-57.27
-48.46
-32.69
-11.71
11.66
34.22
53.43
67.79
76.93
81.27
81.53
78.63
73.49
67.16
60.83
55.61
52.34
51.31
52.22
54.15
55.85
56.07
53.94
49.33
42.91
35.86
29.34
23.94
19.38
14.67
8.53
0.18
-10.44
-22.47
-34.40
-44.46
-50.95
-52.49
-48.28
-38.35
-23.76
-6.48
10.91
26.02
37.16
43.60
45.50
43.54
38.63
31.76
24.16
17.17
12.10
9.77
10.15
12.31
14.75
16.00
15.19
12.25
7.80
2.71
-2.38
-7.26
-12.22
-17.85
-24.78
-33.54
-44.19
-56.19
-68.32
-78.67
-85.12
-85.85
-80.03
-68.09
-51.68
-33.26
-15.31
0.11
11.88
19.66
23.69
24.54
22.80
19.11
14.26
9.21
5.05
2.72
2.58
4.15
6.13
6.96
5.37
1.15
-4.90
-11.32
-16.76
-20.72
-23.77
-27.20
-32.45
-40.33
-50.67
-62.31
-73.40
-81.78
-85.56
-83.51
-75.32
-61.81
-44.59
-25.79
-7.49
8.61
21.29
29.83
33.97
33.92
30.45
24.94
19.07
14.45
12.17
12.52
14.87
18.13
21.10
22.91
23.20
22.01
19.62
16.25
12.07
7.15
1.54
-4.71
-11.62
-19.21
-27.55
-36.52
-45.53
-53.49
-58.76
-59.67
-55.04
-44.69
-29.67
-12.05
5.72
21.48
33.86
42.42
47.39
49.28
48.63
46.01
41.99
37.43
33.19
30.01
28.19
27.44
27.09
26.31
24.56
21.69
17.99
13.91
9.86
5.99
2.12
-2.23
-7.68
-14.77
-23.61
-33.58
-43.35
-50.93
-54.39
-52.36
-44.63
-32.14
-16.72
-0.48
14.76
27.68
37.51
43.81
46.28
44.98
40.46
33.92
27.03
21.49
18.35
17.60
18.28
18.93
18.43
16.43
13.39
10.23
7.64
5.55
3.28
-0.27
-5.88
-13.70
-23.24
-33.53
-43.57
-52.30
-58.73
-61.77
-60.37
-53.89
-42.48
-27.41
-10.84
4.67
16.82
24.33
27.01
25.58
21.26
15.30
8.71
2.35
-3.09
-7.07
-9.30
-9.86
-9.26
-8.26
-7.62
-7.86
-9.10
-11.29
-14.25
-17.96
-22.56
-28.34
-35.63
-44.52
-54.55
-64.51
-72.43
-76.16
-73.99
-65.37
-51.21
-33.58
-15.18
1.64
15.19
24.72
30.19
31.90
30.39
26.32
20.66
14.62
9.53
6.41
5.71
7.13
9.71
12.18
13.40
12.72
10.16
6.23
1.64
-3.18
-8.44
-14.88
-23.41
-34.43
-47.11
-59.37
-68.33
-71.29
-66.84
-55.31
-38.74
-20.01
-1.84
13.76
25.74
33.69
37.67
37.98
35.38
31.06
26.53
23.21
21.94
22.80
25.09
27.71
29.62
30.11
29.05
26.64
23.33
19.51
15.33
10.68
5.13
-1.86
-10.63
-20.99
-32.04
-42.05
-48.95
-50.83
-46.65
-36.57
-21.98
-5.03
12.00
27.17
39.19
47.34
51.46
51.87
49.41
45.42
41.46
38.93
38.55
40.05
42.41
44.23
44.46
42.84
39.92
36.76
34.21
32.49
31.10
29.12
25.65
20.14
12.61
3.65
-5.66
-13.78
-18.95
-19.50
-14.41
-3.77
11.06
27.65
43.17
55.26
62.68
65.49
64.70
61.73
57.81
53.76
50.05
46.77
44.09
42.02
40.47
39.12
37.40
34.66
30.40
24.45
17.00
8.61
0.00
-8.23
-15.75
-22.65
-29.52
-37.07
-45.79
-55.32
-64.33
-70.74
-72.47
-68.50
-59.33
-46.95
-33.95
-22.53
-13.92
-8.26
-5.26
-4.77
-6.85
-11.63
-18.60
-26.45
-33.32
-37.50
-38.24
-36.09
-32.64
-29.87
-29.22
-31.12
-34.93
-39.43
-43.50
-46.66
-49.32
-52.48
-57.33
-64.36
-73.02
-81.66
-87.88
-89.50
-85.14
-74.79
-59.57
-41.32
-22.05
-3.47
13.01
26.33
35.69
40.56
41.04
37.98
32.96
27.92
24.58
23.85
25.55
28.52
31.22
32.29
31.18
28.26
24.52
20.98
18.08
15.49
12.17
7.05
-0.58
-10.73
-22.55
-34.66
-45.34
-52.91
-55.92
-53.45
-45.33
-32.27
-15.86
1.83
18.71
33.09
43.98
50.98
54.08
53.44
49.40
42.65
34.32
25.90
18.84
14.13
11.91
11.35
11.18
10.21
7.87
4.48
0.80
-2.31
-4.58
-6.47
-9.01
-13.49
-20.89
-31.32
-43.84
-56.39
-66.30
-71.00
-68.86
-59.68
-44.79
-26.63
-7.87
9.24
23.34
33.98
41.20
45.28
46.46
45.10
41.83
37.68
33.87
31.57
31.37
33.12
36.00
38.80
40.35
39.98
37.66
33.99
29.87
26.05
22.74
19.48
15.33
9.28
0.61
-10.74
-24.15
-38.27
-51.21
-60.90
-65.35
-63.31
-54.62
-40.36
-22.57
-3.70
14.19
29.70
42.21
51.51
57.38
59.62
58.25
53.81
47.45
40.75
35.16
31.57
30.06
30.00
30.35
29.97
28.05
24.21
18.70
12.16
5.36
-1.16
-7.39
-13.85
-21.39
-30.92
-42.77
-56.43
-70.36
-82.18
-89.35
-89.95
-83.39
-70.63
-53.95
-36.05
-19.29
-5.05
6.31
15.04
21.55
26.10
28.81
30.04
30.50
31.17
33.03
36.43
40.93
45.31
48.01
47.89
44.66
39.07
32.49
26.32
21.41
17.66
14.30
10.15
4.19
-4.19
-14.98
-27.51
-40.42
-51.70
-59.01
-60.20
-54.03
-40.70
-22.01
-0.93
19.28
36.05
48.09
55.47
59.12
60.13
59.29
56.92
53.19
48.56
43.90
40.34
38.75
39.20
40.77
41.90
41.02
37.26
30.89
23.09
15.43
9.14
4.52
0.95
-2.87
-8.38
-16.61
-27.88
-41.66
-56.66
-70.84
-81.82
-87.39
-85.97
-77.28
-62.41
-43.57
-23.49
-4.60
11.42
23.78
32.35
37.23
38.66
36.98
32.89
27.41
21.85
17.43
14.99
14.79
16.40
18.97
21.45
22.86
22.55
20.36
16.57
11.83
6.86
2.16
-2.33
-7.18
-13.30
-21.51
-31.93
-43.75
-55.08
-63.39
-66.22
-61.99
-50.68
-33.89
-14.37
4.95
21.85
35.33
45.52
53.01
58.26
61.21
61.46
58.85
53.88
47.87
42.52
39.11
38.00
38.39
38.84
37.97
35.14
30.64
25.37
20.28
15.84
11.81
7.53
2.28
-4.41
-12.62
-22.25
-33.07
-44.60
-55.86
-65.17
-70.31
-69.26
-60.90
-45.82
-26.23
-5.31
13.83
29.06
39.76
46.35
49.84
51.22
51.22
50.55
49.88
49.83
50.59
51.58
51.47
48.60
41.75
30.71
16.50
1.00
-13.78
-26.37
-36.23
-43.65
-49.51
-54.94
-61.08
-68.84
-78.65
-90.12
-101.84
-111.49
-116.43
-114.50
-104.90
-88.50
-67.60
-45.16
-23.87
-5.50
9.18
20.21
27.87
32.49
34.41
34.24
32.89
31.50
31.20
32.62
35.71
39.70
43.34
45.37
45.01
42.20
37.62
32.27
27.04
22.22
17.42
11.80
4.48
-5.11
-17.02
-30.65
-44.75
-57.50
-66.68
-70.16
-66.60
-55.93
-39.67
-20.47
-1.32
15.33
28.21
37.12
42.51
44.87
44.49
41.57
36.55
30.41
24.52
20.19
18.22
18.50
20.19
22.02
22.94
22.37
20.33
17.12
13.06
8.27
2.63
-4.10
-12.21
-21.93
-33.22
-45.57
-57.74
-67.76
-73.35
-72.73
-65.34
-52.24
-35.77
-18.73
-3.37
9.13
18.67
25.59
30.15
32.26
31.77
28.83
24.25
19.38
15.64
13.96
14.51
16.58
18.95
20.33
19.77
17.01
12.37
6.63
0.66
-4.98
-10.18
-15.36
-21.28
-28.55
-37.20
-46.28
-54.03
-58.26
-57.23
-50.34
-38.40
-23.49
-8.07
5.73
16.71
24.61
29.70
32.27
32.43
30.22
25.99
20.61
15.37
11.53
9.80
10.04
11.34
12.43
12.27
10.43
7.24
3.42
-0.21
-3.22
-5.66
-8.08
-11.31
-16.15
-23.11
-32.08
-42.08
-51.31
-57.49
-58.53
-53.25
-41.95
-26.25
-8.70
8.16
22.43
33.15
40.11
43.45
43.39
40.28
34.78
28.01
21.47
16.56
14.12
14.10
15.69
17.62
18.78
18.55
16.87
14.14
10.97
7.78
4.72
1.54
-2.34
-7.70
-15.18
-24.94
-36.38
-48.11
-58.14
-64.41
-65.38
-60.58
-50.71
-37.44
-22.89
-8.98
2.92
12.08
18.24
21.37
21.60
19.27
15.13
10.30
6.15
3.83
3.92
6.22
9.89
13.85
17.18
19.31
20.02
19.32
17.36
14.33
10.46
6.01
1.10
-4.37
-10.72
-18.23
-26.82
-35.73
-43.47
-48.15
-48.22
-42.98
-33.02
-19.99
-5.93
7.29
18.43
26.86
32.27
34.48
33.40
29.24
22.80
15.51
9.04
4.75
3.22
4.02
5.96
7.69
8.13
6.84
4.04
0.42
-3.31
-6.78
-10.12
-13.98
-19.22
-26.41
-35.54
-45.68
-55.14
-61.93
-64.30
-61.24
-52.86
-40.27
-25.26
-9.78
4.44
16.07
24.27
28.61
29.13
26.42
21.55
15.96
11.12
8.05
7.05
7.69
9.10
10.39
10.94
10.56
9.34
7.48
5.05
1.95
-2.08
-7.39
-14.33
-23.13
-33.67
-45.25
-56.57
-65.82
-71.09
-70.89
-64.68
-53.12
-37.88
-21.21
-5.31
8.08
17.99
24.09
26.58
25.97
23.02
18.69
14.02
10.04
7.45
6.54
7.11
8.62
10.47
12.15
13.42
14.14
14.16
13.21
10.98
7.18
1.63
-5.67
-14.59
-24.77
-35.44
-45.26
-52.36
-54.83
-51.38
-42.04
-28.35
-12.91
1.56
13.12
21.04
25.71
28.03
28.76
28.29
26.82
24.65
22.50
21.28
21.71
23.90
27.15
30.22
32.00
31.85
29.99
27.11
24.02
21.12
18.32
15.11
10.84
5.08
-2.35
-11.13
-20.41
-28.77
-34.35
-35.37
-30.74
-20.61
-6.39
9.59
25.04
38.36
48.91
56.84
62.61
66.62
69.20
70.78
72.10
74.10
77.56
82.73
89.13
95.74
101.64
106.43
110.42
114.32
118.56
122.76
125.60
125.31
120.39
110.30
95.63
77.82
58.66
39.93
23.19
9.86
1.19
-1.91
0.82
8.85
20.87
35.20
50.22
64.63
77.58
88.51
97.09
103.28
107.40
110.23
113.00
117.23
124.33
135.13
149.28
165.06
179.61
189.68
192.60
187.05
173.29
152.69
127.11
98.11
66.59
32.87
-3.18
-41.62
-82.17
-123.73
-164.26
-201.03
-231.23
-252.90
-265.63
-270.75
-270.64
-267.94
-264.66
-261.93
-260.15
-259.21
-258.63
-257.49
-254.40
-247.83
-236.85
-221.70
-204.06
-186.51
-171.50
-160.54
-153.72
-150.11
-148.41
-147.64
-147.45
-147.86
-148.99
-150.83
-153.08
-155.20
-156.29
-155.16
-150.40
-140.81
-125.94
-106.46
-84.27
-61.96
-42.10
-26.47
-15.66
-9.06
-5.32
-2.87
-0.42
2.62
6.12
9.47
12.00
13.38
13.81
13.81
13.88
14.19
14.45
14.23
13.06
10.66
6.88
1.57
-5.50
-14.50
-25.17
-36.60
-47.10
-54.55
-56.97
-53.26
-43.52
-29.11
-12.10
5.30
21.28
34.73
45.03
51.86
55.02
54.61
51.24
46.14
41.02
37.49
36.66
38.93
44.09
51.50
60.16
68.73
75.62
79.30
78.86
74.41
67.05
58.40
49.75
41.50
33.10
23.77
13.43
3.26
-4.36
-6.69
-1.72
10.91
29.69
51.73
73.55
92.04
105.02
111.68
112.32
108.03
100.28
90.62
80.57
71.62
65.05
61.70
61.62
63.84
66.52
67.56
65.41
59.66
51.12
41.39
31.96
23.63
16.26
9.03
1.07
-8.24
-18.90
-30.41
-41.72
-51.45
-58.00
-59.87
-56.19
-47.02
-33.55
-17.79
-1.95
12.23
23.74
32.29
37.95
40.88
41.19
39.21
35.68
31.77
28.77
27.58
28.32
30.32
32.49
33.89
34.12
33.32
31.91
30.14
27.96
25.00
20.74
14.69
6.44
-4.14
-16.77
-30.44
-43.32
-52.97
-56.99
-53.87
-43.49
-27.34
-8.03
11.43
28.45
41.35
49.45
52.96
52.67
49.80
45.72
41.75
38.90
37.60
37.67
38.42
38.97
38.64
37.13
34.60
31.46
28.08
24.56
20.60
15.54
8.50
-1.34
-14.40
-30.40
-47.99
-64.75
-77.70
-84.15
-82.67
-73.81
-59.87
-44.27
-30.25
-20.04
-14.47
-13.33
-15.83
-21.12
-28.31
-36.38
-44.16
-50.48
-54.57
-56.32
-56.32
-55.51
-54.56
-53.59
-52.11
-49.44
-45.20
-39.64
-33.65
-28.42
-25.08
-24.41
-26.75
-32.03
-39.52
-47.81
-54.71
-57.57
-53.98
-42.62
-23.90
-0.02
25.63
49.49
68.78
81.98
88.79
89.78
85.98
78.69
69.43
60.01
52.18
47.30
45.91
47.47
50.69
53.90
55.73
55.52
53.22
49.25
43.88
37.00
28.17
16.79
2.53
-14.29
-32.51
-50.10
-64.53
-73.41
-75.06
-68.98
-55.94
-37.71
-16.55
5.33
26.04
44.08
58.30
67.90
72.52
72.49
68.91
63.52
58.22
54.61
53.42
54.40
56.52
58.42
58.95
57.73
55.14
52.04
49.26
47.12
45.22
42.64
38.25
31.16
21.06
8.20
-6.43
-21.18
-33.83
-41.92
-43.32
-36.91
-23.09
-3.79
17.94
38.86
56.38
68.98
76.25
78.46
76.23
70.42
62.13
52.84
44.22
37.75
34.27
33.62
34.75
36.10
36.24
34.39
30.57
25.49
20.10
15.12
10.72
6.41
1.19
-6.03
-15.97
-28.50
-42.39
-55.41
-64.86
-68.30
-64.36
-53.16
-36.32
-16.48
3.49
21.08
34.57
43.11
46.45
44.94
39.36
30.92
21.24
12.10
5.13
1.32
0.92
3.21
6.84
10.16
11.70
10.59
6.78
1.02
-5.53
-11.77
-17.21
-22.10
-27.38
-34.18
-43.13
-53.84
-64.64
-73.09
-76.62
-73.54
-63.57
-47.95
-28.99
-9.35
8.62
23.25
33.61
39.31
40.42
37.38
31.11
22.96
14.63
7.75
3.48
2.19
3.40
5.89
8.16
9.00
7.81
4.80
0.77
-3.46
-7.48
-11.57
-16.62
-23.71
-33.54
-45.99
-59.86
-73.01
-82.79
-86.76
-83.46
-72.89
-56.53
-36.98
-17.06
0.76
14.86
24.43
29.25
29.49
25.71
18.93
10.73
3.03
-2.47
-4.76
-3.86
-0.72
3.20
6.39
7.86
7.29
4.98
1.64
-2.11
-5.90
-9.92
-14.71
-20.98
-29.23
-39.49
-51.07
-62.56
-72.04
-77.37
-76.86
-69.67
-56.35
-38.69
-19.37
-1.16
13.73
24.12
29.80
31.23
29.29
25.01
19.59
14.32
10.42
8.73
9.35
11.61
14.18
15.57
14.72
11.29
5.74
-0.91
-7.61
-13.62
-18.73
-23.33
-28.20
-34.21
-42.03
-51.84
-63.06
-74.32
-83.59
-88.68
-87.86
-80.44
-67.15
-49.90
-31.37
-14.24
-0.53
8.64
13.12
13.40
10.49
5.56
-0.11
-5.29
-8.86
-10.12
-8.88
-5.61
-1.39
2.42
4.61
4.57
2.51
-0.64
-3.72
-5.81
-6.69
-7.05
-8.15
-11.52
-18.28
-28.56
-41.28
-54.18
-64.24
-68.49
-64.94
-53.18
-34.65
-12.22
10.66
30.83
46.14
55.77
60.01
59.78
56.26
50.53
43.57
36.41
30.13
25.69
23.70
23.99
25.56
26.83
26.26
23.05
17.52
10.90
4.75
0.11
-3.01
-5.60
-9.21
-15.22
-24.13
-35.25
-46.71
-55.97
-60.53
-58.70
-50.11
-35.84
-18.14
0.27
16.92
30.18
39.41
44.76
46.76
46.06
43.27
39.17
34.74
31.10
29.23
29.54
31.66
34.42
36.22
35.64
31.90
25.17
16.35
6.67
-2.90
-12.06
-21.24
-31.39
-43.49
-58.03
-74.62
-91.90
-107.72
-119.63
-125.43
-123.77
-114.42
-98.40
-77.75
-55.18
-33.47
-14.99
-1.30
7.13
10.91
11.43
10.42
9.46
9.54
11.02
13.77
17.48
22.05
27.59
34.19
41.69
49.39
56.27
61.36
64.41
65.71
66.08
65.95
64.75
60.86
52.54
39.20
22.48
6.11
-5.45
-8.90
-3.54
8.57
23.70
38.22
49.90
58.33
64.29
68.67
71.77
73.13
72.11
68.52
62.96
56.79
51.52
48.23
47.09
47.27
47.30
45.64
41.60
35.37
27.95
20.53
13.83
7.79
1.69
-5.41
-14.26
-25.16
-38.20
-53.25
-69.92
-87.16
-102.94
-114.24
-117.83
-111.45
-94.91
-70.48
-42.29
-14.82
8.54
26.40
39.21
48.35
55.02
59.74
62.38
62.74
61.15
58.54
56.23
55.26
56.02
57.98
59.99
60.68
59.01
54.62
47.90
39.84
31.65
24.35
18.41
13.66
9.34
4.35
-2.42
-11.78
-23.94
-38.25
-53.10
-65.99
-74.05
-74.81
-67.01
-51.13
-29.41
-5.21
17.91
37.13
50.92
59.13
62.57
62.39
59.60
54.88
48.65
41.36
33.67
26.50
20.88
17.53
16.59
17.52
19.26
20.57
20.36
18.02
13.50
7.23
-0.05
-7.61
-14.87
-21.59
-27.93
-34.38
-41.80
-51.22
-63.52
-78.76
-95.75
-111.75
-122.95
-125.68
-117.60
-98.81
-71.96
-41.37
-11.66
13.61
32.69
45.51
53.06
56.63
57.43
56.36
54.23
51.71
49.35
47.54
46.32
45.53
44.97
44.43
43.83
43.05
41.81
39.69
36.20
31.10
24.56
17.13
9.57
2.38
-4.26
-10.74
-17.73
-26.04
-36.47
-49.43
-64.83
-81.57
-97.52
-109.65
-114.80
-110.75
-97.17
-75.95
-50.65
-25.42
-3.62
13.03
24.52
31.96
36.66
39.61
41.27
41.94
42.05
42.28
43.32
45.51
48.63
51.98
54.70
56.13
56.02
54.36
51.23
46.60
40.42
32.80
24.12
15.13
6.62
-0.93
-7.59
-14.15
-21.83
-31.88
-44.80
-59.81
-74.68
-86.12
-90.80
-86.52
-73.13
-52.66
-28.62
-4.88
15.49
30.82
40.86
46.23
47.94
47.00
44.38
41.04
37.86
35.49
34.23
33.98
34.30
34.73
34.89
34.54
33.47
31.38
27.99
23.13
16.99
10.03
2.91
-3.89
-10.30
-16.60
-23.35
-31.15
-40.44
-51.51
-64.22
-77.83
-90.69
-100.24
-103.59
-98.35
-83.80
-61.33
-34.34
-7.07
16.70
34.67
46.35
52.68
55.15
55.09
53.37
50.46
46.82
43.05
39.90
38.01
37.56
38.13
38.80
38.55
36.65
32.94
27.80
21.87
15.77
9.70
3.47
-3.25
-10.78
-19.20
-28.46
-38.48
-49.38
-61.31
-74.10
-86.89
-97.77
-104.17
-103.57
-94.53
-77.45
-54.60
-29.41
-5.42
14.81
30.14
40.63
46.99
50.04
50.44
48.71
45.44
41.36
37.25
33.77
31.25
29.70
28.72
27.66
25.84
22.68
17.93
11.84
5.11
-1.38
-6.98
-11.59
-15.70
-20.20
-26.01
-33.63
-43.01
-53.48
-63.78
-72.18
-76.77
-75.84
-68.45
-54.88
-36.75
-16.66
2.61
18.92
31.19
39.35
43.93
45.49
44.37
40.86
35.53
29.37
23.85
20.40
19.84
21.98
25.56
28.74
29.83
27.97
23.34
17.02
10.38
4.42
-0.50
-4.80
-9.29
-14.89
-22.26
-31.60
-42.40
-53.30
-62.18
-66.60
-64.51
-55.06
-39.06
-18.84
2.57
22.27
38.31
49.85
56.99
60.42
61.19
60.29
58.53
56.12
52.51
46.48
36.75
22.65
4.72
-15.31
-35.05
-52.32
-65.77
-75.20
-81.25
-84.91
-87.19
-88.90
-90.73
-93.30
-97.16
-102.65
-109.44
-116.40
-121.57
-122.65
-117.72
-106.11
-88.79
-68.11
-47.05
-28.12
-12.73
-1.04
7.56
13.74
17.79
19.71
19.64
18.26
16.72
16.37
17.85
20.76
23.54
24.13
20.90
13.49
3.07
-8.04
-17.27
-22.84
-24.29
-22.73
-20.13
-18.77
-20.27
-25.19
-32.72
-40.73
-46.31
-46.45
-38.95
-23.17
-0.48
26.00
52.26
74.42
89.81
97.32
97.44
91.62
81.85
70.21
58.68
49.01
42.49
39.66
39.96
41.96
43.73
43.63
40.94
36.06
30.22
24.73
20.43
17.23
14.21
9.98
3.26
-6.69
-19.68
-34.46
-48.94
-60.52
-66.78
-66.13
-58.25
-44.17
-25.98
-6.29
12.38
28.02
39.36
45.95
48.09
46.69
43.06
38.71
34.92
32.57
32.03
33.14
35.42
38.32
41.33
44.09
46.35
47.92
48.66
48.42
47.11
44.53
40.43
34.61
27.15
18.82
11.42
7.57
9.85
19.71
36.38
56.70
75.86
88.95
92.54
85.64
69.51
46.89
20.86
-5.96
-31.54
-54.31
-72.99
-86.67
-95.17
-99.24
-100.47
-100.81
-101.87
-104.31
-107.70
-110.97
-112.94
-113.11
-111.98
-110.87
-111.49
-115.01
-121.32
-128.79
-134.39
-134.72
-127.14
-110.87
-87.23
-59.27
-30.54
-4.05
18.39
36.27
49.83
59.60
66.09
69.89
71.86
73.25
75.42
79.42
85.62
93.49
101.95
109.67
115.57
118.92
119.29
116.41
110.00
99.84
85.84
68.30
47.99
26.24
4.74
-14.68
-30.36
-41.18
-46.81
-47.83
-45.52
-41.59
-37.54
-34.37
-32.35
-31.15
-30.09
-28.49
-25.84
-21.96
-17.05
-11.57
-6.11
-1.17
3.10
6.88
10.42
13.78
16.50
17.71
16.33
11.45
2.62
-9.98
-25.52
-42.42
-58.37
-70.63
-76.68
-75.06
-65.96
-51.41
-34.57
-18.68
-6.09
2.29
6.81
8.52
8.61
7.99
7.42
7.43
8.44
10.62
13.76
17.29
20.49
22.68
23.48
22.91
21.26
18.88
16.02
12.61
8.29
2.56
-4.97
-14.21
-24.29
-33.60
-40.10
-41.94
-38.14
-29.06
-16.30
-2.16
11.14
21.99
29.58
33.72
34.62
32.75
28.80
23.74
18.72
14.76
12.49
11.86
12.34
13.12
13.45
12.86
11.18
8.48
4.98
0.89
-3.77
-9.15
-15.66
-23.62
-32.86
-42.34
-50.23
-54.27
-52.65
-44.72
-31.40
-14.90
2.04
16.97
28.42
35.92
39.83
40.84
39.72
37.17
33.86
30.52
27.80
26.19
25.80
26.42
27.61
28.75
29.26
28.59
26.28
21.93
15.25
6.02
-5.72
-19.57
-34.37
-48.11
-58.08
-61.65
-57.25
-45.20
-27.77
-8.42
9.46
23.62
33.43
39.44
42.60
43.63
42.90
40.70
37.60
34.46
32.15
30.99
30.63
30.20
28.89
26.37
22.87
19.01
15.39
12.17
8.98
5.00
-0.58
-8.26
-17.88
-28.50
-38.49
-45.80
-48.51
-45.38
-36.18
-21.95
-4.64
13.42
30.04
43.77
54.01
60.84
64.81
66.58
66.67
65.46
63.22
60.29
57.06
53.85
50.71
47.35
43.08
37.25
29.61
20.62
11.31
2.89
-3.90
-9.24
-14.14
-20.06
-28.13
-38.46
-49.85
-60.09
-66.69
-67.76
-62.67
-52.13
-37.91
-22.10
-6.56
7.28
18.51
26.55
31.09
32.16
30.30
26.67
22.75
20.03
19.40
20.88
23.65
26.45
28.10
27.92
25.92
22.58
18.62
14.61
10.86
7.39
3.87
-0.36
-6.07
-13.89
-23.79
-34.72
-44.68
-51.24
-52.36
-47.26
-36.63
-22.39
-6.97
7.44
19.27
27.62
32.07
32.59
29.54
23.75
16.59
9.68
4.48
1.83
1.61
2.93
4.42
4.84
3.52
0.55
-3.39
-7.44
-11.00
-13.95
-16.74
-20.19
-25.11
-31.92
-40.28
-49.04
-56.36
-60.23
-59.10
-52.37
-40.66
-25.53
-9.11
6.50
19.72
29.63
35.89
38.60
38.21
35.37
30.99
26.12
21.69
18.38
16.39
15.57
15.47
15.53
15.32
14.52
13.00
10.66
7.40
3.02
-2.70
-9.93
-18.72
-28.87
-39.74
-50.09
-58.14
-61.99
-60.15
-52.27
-39.30
-23.44
-7.33
6.69
17.23
23.96
27.40
28.41
27.90
26.69
25.48
24.93
25.40
26.85
28.83
30.62
31.49
30.99
29.07
25.94
21.92
17.26
12.06
6.30
-0.16
-7.45
-15.62
-24.36
-32.86
-39.81
-43.60
-42.82
-36.81
-26.04
-12.17
2.42
15.36
25.00
30.70
32.85
32.39
30.42
27.84
25.33
23.24
21.72
20.72
20.07
19.55
18.94
18.13
17.07
15.79
14.31
12.63
10.76
8.63
6.10
2.97
-0.87
-5.11
-8.76
-10.27
-7.76
0.06
13.39
31.10
51.04
70.82
88.57
103.34
115.07
124.19
131.28
136.89
141.67
146.51
152.70
161.68
174.51
191.36
211.19
231.90
250.88
265.93
275.96
281.32
283.56
284.65
286.04
287.93
289.11
287.50
281.02
268.44
249.91
226.83
201.15
174.69
148.51
122.88
97.69
72.90
48.88
26.36
5.99
-12.10
-28.51
-44.41
-61.10
-79.47
-99.67
-121.07
-142.72
-163.68
-183.58
-202.70
-221.82
-241.87
-263.68
-287.86
-314.76
-344.34
-375.89
-407.69
-437.08
-460.99
-476.97
-484.08
-482.97
-475.12
-461.63
-442.21
-415.28
-378.79
-331.60
-274.42
-209.98
-142.50
-76.72
-17.12
32.64
69.99
93.73
104.27
103.51
94.44
80.36
64.14
47.66
31.89
17.17
3.55
-8.98
-20.40
-30.74
-40.05
-48.44
-55.95
-62.54
-68.17
-72.90
-76.93
-80.33
-82.78
-83.41
-80.83
-73.65
-61.10
-43.45
-22.14
0.62
22.48
41.58
56.92
68.53
77.28
84.51
91.67
100.01
110.41
123.21
138.22
154.83
172.24
189.81
207.25
224.88
243.66
264.89
289.56
317.52
346.72
373.33
392.58
400.46
395.17
377.72
351.55
320.89
289.09
257.63
226.24
193.84
159.78
124.36
88.63
53.55
19.27
-15.06
-50.87
-89.58
-132.11
-178.75
-228.96
-281.29
-333.13
-380.76
-419.99
-447.25
-460.88
-461.66
-452.41
-436.92
-418.55
-399.54
-381.05
-363.74
-348.30
-335.54
-325.92
-319.11
-313.70
-307.58
-298.40
-284.34
-264.47
-239.04
-209.35
-177.51
-145.93
-116.75
-91.47
-70.84
-54.99
-43.87
-37.36
-35.19
-36.67
-40.42
-44.41
-46.59
-45.47
-40.78
-33.70
-26.34
-20.96
-19.02
-20.66
-24.62
-28.94
-31.84
-32.42
-31.03
-28.95
-27.87
-28.96
-32.54
-37.60
-42.14
-43.46
-38.69
-25.38
-2.04
30.94
70.68
111.84
147.73
172.27
182.12
177.89
163.80
145.87
129.48
117.61
110.51
106.66
104.27
102.22
100.12
97.60
93.89
87.87
78.77
66.85
53.55
40.95
30.76
23.64
18.67
13.66
6.14
-5.63
-21.56
-39.32
-54.81
-63.32
-61.29
-47.68
-24.52
3.73
31.76
55.16
71.58
80.94
84.74
85.16
84.25
83.74
84.97
88.89
95.85
105.29
115.75
125.10
131.18
132.36
127.85
117.52
101.41
79.20
49.94
12.25
-34.74
-90.15
-150.17
-207.73
-253.72
-279.53
-280.12
-256.18
-214.18
-164.14
-116.09
-77.12
-50.05
-34.12
-27.02
-26.62
-31.53
-40.40
-51.33
-61.55
-68.39
-70.52
-68.54
-64.29
-59.44
-54.21
-47.31
-37.15
-23.26
-7.27
7.68
18.42
23.33
22.98
19.51
15.25
11.52
8.25
4.47
-0.90
-8.53
-18.47
-30.06
-41.94
-51.89
-56.94
-53.99
-40.80
-17.08
15.32
52.53
89.87
123.10
149.31
167.17
176.71
178.82
175.01
167.16
157.51
148.39
141.71
138.52
138.60
140.57
142.38
141.99
137.92
129.57
117.23
101.84
84.88
67.88
52.21
38.64
27.14
16.88
6.64
-4.48
-16.31
-27.24
-34.60
-35.51
-28.13
-12.39
9.84
35.54
61.52
85.34
105.73
122.23
134.71
142.98
146.83
146.25
141.55
133.58
123.48
112.55
102.06
93.00
85.96
80.90
77.22
73.98
70.29
65.67
60.17
54.17
47.97
41.37
33.66
23.99
11.71
-3.02
-19.18
-34.97
-48.17
-56.39
-57.64
-50.84
-36.24
-15.71
7.71
30.45
49.43
62.71
69.67
70.73
66.84
59.09
48.67
37.01
25.95
17.40
12.73
12.29
14.92
18.57
21.00
20.81
17.91
13.32
8.56
4.77
2.22
0.21
-2.55
-7.49
-15.59
-27.11
-41.25
-56.15
-68.97
-76.63
-76.70
-68.28
-52.53
-32.35
-11.36
7.32
21.82
31.66
37.25
39.20
37.91
33.72
27.12
19.08
11.01
4.40
0.34
-0.95
-0.25
0.97
1.04
-1.26
-6.25
-13.27
-20.98
-28.07
-33.77
-38.18
-42.14
-46.87
-53.36
-62.07
-72.66
-83.91
-93.92
-100.46
-101.53
-96.00
-84.08
-67.30
-48.11
-29.04
-12.03
1.88
12.47
19.76
23.70
24.14
21.22
15.80
9.55
4.58
2.59
4.23
8.66
14.02
18.22
19.81
18.52
15.12
10.93
7.07
4.00
1.37
-1.71
-6.27
-13.07
-22.23
-33.10
-44.18
-53.39
-58.55
-57.93
-50.83
-37.92
-21.15
-3.21
13.24
26.31
35.29
40.57
43.15
44.03
43.80
42.57
40.33
37.34
34.34
32.32
32.14
33.98
37.17
40.46
42.54
42.57
40.45
36.67
31.97
26.88
21.49
15.47
8.21
-0.82
-11.79
-24.28
-37.11
-48.46
-56.21
-58.49
-54.25
-43.72
-28.38
-10.68
6.66
21.34
31.91
37.92
39.68
37.90
33.37
26.91
19.40
11.90
5.56
1.24
-0.79
-1.19
-1.30
-2.72
-6.50
-12.77
-20.63
-28.67
-35.62
-40.87
-44.66
-47.92
-51.79
-57.26
-64.85
-74.49
-85.31
-95.72
-103.57
-106.60
-103.23
-93.14
-77.61
-59.18
-40.81
-24.91
-12.72
-4.32
0.84
3.30
3.27
0.73
-4.16
-10.56
-16.99
-21.79
-23.74
-22.69
-19.67
-16.43
-14.63
-15.14
-17.72
-21.16
-24.12
-25.67
-25.86
-25.62
-26.29
-29.06
-34.41
-41.91
-50.27
-57.66
-62.08
-61.93
-56.30
-45.32
-30.11
-12.60
5.08
20.99
33.86
43.14
48.78
51.09
50.57
47.82
43.76
39.53
36.35
35.10
36.02
38.46
41.08
42.45
41.64
38.56
33.93
28.77
23.84
19.34
14.86
9.73
3.25
-5.02
-15.11
-26.54
-38.06
-47.74
-53.21
-52.35
-44.12
-29.05
-9.29
12.10
31.96
47.98
59.04
65.12
66.97
65.58
62.00
57.12
51.73
46.56
42.21
39.11
37.35
36.64
36.26
35.30
32.88
28.56
22.50
15.35
8.04
1.18
-5.13
-11.40
-18.59
-27.64
-39.09
-52.64
-67.07
-80.24
-89.63
-92.94
-88.87
-77.57
-60.59
-40.45
-19.74
-0.54
15.92
29.07
38.63
44.36
46.05
43.86
38.63
32.00
25.92
22.20
21.79
24.50
29.09
33.67
36.51
36.51
33.53
28.32
21.99
15.58
9.57
3.88
-2.04
-8.83
-17.11
-27.21
-38.98
-51.62
-63.42
-71.89
-74.35
-68.80
-54.94
-34.61
-11.41
10.60
28.30
40.39
47.31
50.40
50.87
49.23
45.60
40.34
34.45
29.53
27.06
27.58
30.37
33.70
35.71
35.20
32.16
27.50
22.48
18.08
14.55
11.33
7.33
1.32
-7.62
-19.80
-34.65
-50.63
-65.36
-76.07
-80.26
-76.45
-64.67
-46.46
-24.42
-1.37
20.33
39.13
54.14
64.92
71.18
72.79
70.18
64.51
57.72
52.12
49.73
51.52
57.18
65.09
72.88
78.27
79.73
77.00
70.99
63.42
56.07
50.17
45.98
42.86
39.70
35.29
28.96
20.82
11.94
4.23
-0.05
1.21
9.25
24.14
44.67
68.81
94.35
119.41
142.83
163.88
181.86
195.62
203.66
204.59
197.99
185.01
168.23
150.90
135.60
123.24
112.66
101.30
86.51
66.96
43.31
17.71
-7.42
-30.74
-52.60
-74.61
-98.42
-124.55
-151.91
-177.99
-199.79
-214.58
-220.41
-216.33
-202.63
-181.12
-155.27
-129.74
-109.04
-95.89
-90.19
-89.17
-89.00
-86.80
-82.04
-76.38
-72.40
-71.92
-74.92
-79.80
-84.36
-87.02
-87.44
-86.36
-84.79
-83.28
-81.71
-79.38
-75.65
-70.36
-64.04
-57.63
-52.04
-47.77
-44.81
-42.85
-41.54
-40.63
-39.71
-37.75
-32.99
-23.24
-6.66
17.18
46.74
78.59
108.31
131.79
146.34
151.12
146.96
135.86
120.42
103.76
89.47
81.29
82.41
94.49
116.68
145.51
175.72
201.78
219.63
227.74
227.08
220.23
210.07
198.71
187.08
175.25
162.87
149.48
134.67
118.03
99.28
78.75
57.88
39.22
25.86
20.13
22.25
29.72
37.91
41.75
37.53
24.23
3.52
-21.25
-46.45
-69.38
-88.65
-103.99
-115.66
-124.08
-129.49
-131.82
-130.75
-125.82
-116.85
-104.42
-90.40
-77.92
-70.76
-72.46
-85.28
-109.55
-143.77
-185.01
-229.72
-274.34
-315.80
-351.69
-380.47
-401.32
-413.96
-418.33
-414.20
-401.29
-379.56
-349.75
-313.57
-273.58
-232.55
-192.83
-155.94
-122.59
-92.99
-67.13
-44.88
-25.90
-9.49
5.37
19.80
34.55
49.66
64.47
77.71
88.06
94.61
97.30
96.82
94.46
91.49
88.76
86.45
84.10
80.94
76.21
69.41
60.24
48.65
34.74
19.07
2.84
-12.18
-23.96
-30.82
-32.02
-28.00
-20.19
-10.43
-0.38
8.86
16.72
22.99
27.47
29.94
30.31
28.91
26.55
24.41
23.64
24.86
27.93
31.89
35.42
37.32
36.99
34.49
30.37
25.26
19.65
13.80
7.89
2.03
-3.73
-9.56
-16.04
-24.01
-34.03
-45.81
-57.81
-67.35
-71.44
-67.86
-56.07
-37.54
-15.23
7.60
28.28
45.45
58.99
69.44
77.55
83.92
89.05
93.48
97.63
101.63
105.04
107.00
106.53
103.10
96.87
88.57
79.12
69.23
59.16
48.97
38.69
28.58
18.93
9.78
0.70
-9.17
-20.68
-34.10
-48.57
-62.01
-71.67
-74.71
-69.53
-56.29
-37.10
-15.37
5.33
22.36
34.55
42.11
46.02
47.24
46.34
43.57
39.24
34.09
29.37
26.50
26.45
29.35
34.36
39.98
44.61
47.04
46.79
44.10
39.73
34.72
29.90
25.71
22.00
18.12
13.09
6.00
-3.47
-14.66
-25.72
-33.95
-36.44
-31.10
-17.45
3.00
27.17
51.30
72.13
87.86
98.26
104.34
107.59
109.23
109.95
109.95
109.35
108.49
108.05
108.82
111.37
115.71
121.25
126.88
131.29
133.16
130.87
122.50
105.79
78.89
41.49
-4.28
-53.74
-100.84
-140.11
-168.29
-184.87
-191.34
-189.59
-180.84
-165.53
-144.21
-118.32
-90.25
-62.32
-35.81
-10.55
14.29
38.87
61.87
80.82
93.44
99.15
99.56
97.77
96.80
98.33
102.43
108.10
114.22
119.89
124.03
124.95
120.33
107.86
86.43
56.76
20.87
-19.12
-62.44
-109.77
-162.10
-218.58
-275.05
-324.05
-356.80
-366.16
-349.26
-308.74
-251.98
-188.99
-129.69
-81.64
-48.74
-31.15
-25.98
-28.46
-33.16
-34.93
-29.77
-15.73
6.32
32.68
57.83
76.64
86.81
90.07
91.31
96.03
107.15
123.29
139.55
150.02
150.76
141.30
124.17
103.11
81.33
60.84
42.88
28.63
19.46
16.31
19.07
26.00
34.15
40.24
41.75
37.69
28.74
16.81
4.30
-6.56
-14.32
-18.60
-20.00
-19.86
-19.78
-21.04
-24.35
-29.58
-35.97
-42.65
-48.90
-54.47
-59.52
-64.39
-69.31
-74.51
-80.18
-86.58
-93.84
-101.65
-108.96
-114.05
-115.01
-110.43
-100.06
-84.89
-66.87
-48.31
-31.28
-17.36
-7.50
-2.12
-1.06
-3.60
-8.47
-14.02
-18.66
-21.21
-21.28
-19.30
-16.31
-13.60
-12.26
-12.87
-15.35
-19.08
-23.15
-26.70
-29.20
-30.65
-31.61
-33.07
-36.10
-41.48
-49.27
-58.53
-67.41
-73.56
-74.77
-69.67
-58.21
-41.73
-22.55
-3.40
13.28
25.81
33.43
36.26
35.11
31.22
26.03
20.97
17.26
15.65
16.25
18.48
21.20
23.17
23.38
21.52
17.97
13.70
9.70
6.63
4.49
2.60
-0.10
-4.70
-11.88
-21.64
-33.05
-44.28
-52.92
-56.60
-53.79
-44.33
-29.55
-11.83
6.14
22.15
34.85
43.69
48.67
50.08
48.46
44.70
40.10
36.12
33.98
34.22
36.48
39.67
42.36
43.32
41.98
38.48
33.57
28.26
23.37
19.26
15.72
12.07
7.40
0.84
-7.98
-18.70
-30.11
-40.21
-46.82
-48.17
-43.55
-33.59
-19.99
-4.88
9.80
22.85
33.67
42.02
47.66
50.32
49.88
46.66
41.66
36.31
32.25
30.83
32.82
38.24
46.52
56.76
67.84
78.39
86.79
91.35
90.77
84.71
74.11
60.93
47.47
35.50
25.76
18.17
12.63
9.82
11.36
19.18
34.29
55.65
79.88
101.96
116.69
120.12
110.56
88.70
57.04
18.99
-21.64
-60.64
-93.37
-115.18
-122.49
-114.24
-92.64
-62.73
-30.66
-1.53
21.90
39.24
51.13
57.82
58.28
50.63
33.42
7.29
-24.22
-54.83
-77.15
-85.05
-75.73
-51.00
-16.63
19.86
51.95
76.23
92.73
103.54
110.61
114.35
113.63
107.27
95.56
80.91
67.06
57.37
53.31
53.99
56.95
59.56
60.49
60.23
60.53
63.25
69.17
77.47
85.77
90.85
89.31
78.35
56.42
24.00
-16.00
-58.45
-97.06
-126.05
-141.99
-144.69
-137.02
-123.50
-108.56
-95.22
-84.72
-77.09
-71.95
-69.13
-68.58
-69.90
-72.10
-73.53
-72.60
-68.49
-61.76
-54.19
-48.13
-45.39
-46.47
-50.45
-55.45
-59.66
-62.10
-62.89
-63.00
-63.64
-65.77
-69.73
-75.28
-81.66
-87.69
-91.86
-92.57
-88.55
-79.25
-65.23
-47.97
-29.54
-12.04
2.90
14.22
21.53
24.84
24.58
21.60
17.19
12.88
10.10
9.77
11.98
15.98
20.49
24.20
26.25
26.44
25.10
22.80
20.03
16.84
12.95
7.89
1.24
-7.24
-17.43
-28.90
-40.77
-51.65
-59.80
-63.48
-61.56
-54.01
-42.04
-27.75
-13.39
-0.68
9.48
16.89
21.71
24.10
24.24
22.54
19.86
17.34
16.07
16.59
18.54
20.85
22.16
21.47
18.49
13.65
7.83
1.89
-3.60
-8.60
-13.42
-18.61
-24.67
-31.92
-40.26
-49.07
-57.18
-63.00
-64.98
-62.02
-53.97
-41.68
-26.73
-10.97
3.95
16.90
27.26
34.77
39.47
41.55
41.50
40.06
38.14
36.61
36.00
36.38
37.30
37.92
37.33
34.88
30.39
24.17
16.97
9.55
2.48
-4.18
-10.85
-18.21
-26.95
-37.21
-48.41
-59.15
-67.56
-71.81
-70.68
-64.01
-52.73
-38.67
-23.86
-10.19
1.16
9.69
15.36
18.56
19.98
20.86
22.69
26.79
33.54
42.00
50.07
55.31
56.11
52.30
45.27
37.03
29.32
22.91
17.59
12.75
7.83
2.61
-3.05
-9.45
-17.03
-25.87
-35.25
-43.35
-47.74
-46.30
-38.09
-24.10
-6.92
10.20
24.51
34.59
40.48
43.18
43.82
43.19
41.68
39.60
37.51
36.21
36.41
38.28
41.26
44.16
45.65
44.86
41.70
36.90
31.64
26.99
23.49
20.96
18.59
15.36
10.47
3.57
-5.02
-14.27
-22.63
-28.30
-29.70
-25.95
-17.25
-4.99
8.73
21.63
32.05
39.21
43.20
44.52
43.77
41.44
37.93
33.76
29.51
25.77
22.93
20.95
19.48
18.00
16.11
13.72
11.04
8.49
6.49
5.25
4.56
3.84
2.25
-1.03
-6.48
-14.04
-22.97
-31.96
-39.36
-43.57
-43.43
-38.61
-29.70
-18.05
-5.39
6.67
16.97
24.96
30.54
33.83
35.00
34.21
31.87
28.67
25.54
23.39
22.63
23.00
23.63
23.39
21.46
17.63
12.44
6.77
1.35
-3.53
-8.16
-13.19
-19.32
-26.97
-36.12
-46.21
-56.21
-64.74
-70.27
-71.47
-67.55
-58.54
-45.47
-30.15
-14.85
-1.66
8.03
13.84
16.38
16.78
16.24
15.64
15.29
15.25
15.49
16.10
17.26
18.93
20.81
22.24
22.43
20.83
17.18
11.63
4.33
-4.57
-15.16
-27.58
-41.75
-57.02
-71.80
-83.83
-90.67
-90.73
-84.00
-72.18
-58.02
-44.15
-31.98
-21.43
-11.43
-1.05
9.63
19.56
27.37
32.43
35.50
38.40
43.31
51.65
63.63
78.28
93.98
109.02
121.86
131.46
137.10
138.77
137.26
134.38
132.71
134.72
141.66
152.76
165.36
175.92
181.86
182.97
181.60
181.28
184.97
194.12
208.70
228.38
253.10
282.64
315.35
347.08
371.40
381.79
374.44
350.01
313.31
270.98
228.96
190.87
158.08
130.74
108.53
90.63
75.16
58.90
38.32
10.98
-23.45
-62.98
-104.48
-145.47
-185.43
-225.53
-267.05
-309.48
-349.42
-381.59
-401.36
-407.41
-402.83
-393.74
-385.85
-381.33
-377.95
-370.74
-355.16
-329.41
-294.70
-253.83
-209.43
-163.64
-119.15
-80.34
-52.95
-41.88
-48.17
-67.61
-91.66
-110.86
-118.48
-112.47
-95.13
-70.92
-44.28
-18.48
4.36
22.64
34.82
39.67
36.75
27.01
12.80
-2.81
-16.78
-26.92
-32.36
-33.61
-32.42
-31.03
-31.40
-34.31
-38.79
-42.24
-41.53
-34.64
-22.06
-7.22
4.58
8.24
0.71
-18.15
-46.08
-79.81
-116.06
-151.71
-183.00
-204.93
-211.89
-199.73
-168.34
-122.97
-73.22
-29.92
-1.08
10.75
8.82
0.00
-8.38
-11.16
-6.20
6.27
25.20
49.80
79.64
113.90
150.29
184.89
212.80
229.74
233.57
225.04
207.22
184.20
159.52
135.30
112.42
91.28
72.53
57.09
45.64
37.80
31.97
25.62
16.44
3.29
-13.34
-31.52
-48.80
-63.25
-74.21
-82.40
-89.36
-96.49
-104.07
-110.97
-114.90
-113.16
-103.62
-85.47
-59.74
-29.42
0.72
25.08
38.67
39.13
28.11
11.50
-2.18
-4.65
9.04
38.73
79.44
123.44
163.25
193.74
213.06
221.98
222.51
216.68
205.93
191.24
173.52
153.92
133.70
113.79
94.45
75.13
54.86
32.98
9.73
-13.39
-33.91
-49.15
-57.15
-57.54
-51.66
-42.20
-32.15
-23.62
-17.29
-12.46
-8.10
-3.90
-0.80
-0.52
-4.32
-11.99
-21.50
-29.93
-34.70
-34.69
-30.41
-23.27
-14.68
-5.52
3.77
12.62
20.06
24.78
25.83
23.10
17.43
10.01
1.56
-8.15
-20.15
-35.58
-54.78
-76.69
-98.83
-117.90
-130.87
-135.78
-132.39
-122.09
-107.40
-91.21
-75.99
-63.36
-53.67
-46.19
-39.36
-31.30
-20.46
-6.24
10.68
28.50
44.70
56.57
61.83
59.30
49.47
34.88
19.45
7.48
1.55
1.32
3.25
2.02
-7.13
-26.26
-53.81
-85.37
-115.53
-139.93
-156.37
-164.87
-166.80
-164.02
-158.33
-151.39
-144.70
-139.63
-137.44
-139.24
-145.56
-156.21
-169.92
-184.41
-196.76
-204.26
-205.31
-199.89
-189.45
-176.19
-162.35
-149.58
-138.79
-130.42
-124.59
-121.36
-120.51
-121.46
-123.35
-125.37
-127.24
-129.33
-132.53
-137.46
-143.74
-149.83
-153.24
-151.62
-143.55
-129.03
-108.97
-84.55
-56.74
-26.74
3.19
29.48
47.99
55.74
52.71
42.32
30.12
21.35
18.58
20.86
25.05
27.63
26.78
22.80
17.28
11.99
8.39
7.64
10.73
18.06
28.55
39.04
45.02
42.14
28.39
5.37
-21.94
-47.08
-64.43
-70.93
-66.29
-52.11
-30.61
-4.03
25.32
54.64
80.65
100.35
112.02
116.02
114.65
111.20
108.86
109.39
112.78
117.68
122.05
124.18
123.26
119.55
114.38
109.73
107.65
109.52
115.18
122.65
128.59
129.28
122.22
107.02
85.69
61.87
39.69
22.68
13.30
12.84
21.59
38.89
62.88
90.50
117.87
141.21
157.73
166.34
167.47
162.69
153.88
143.03
131.96
122.39
115.85
113.39
115.21
120.38
126.84
131.91
133.09
128.87
119.26
105.72
90.53
75.78
62.62
50.95
39.69
27.49
13.42
-2.54
-19.37
-35.04
-46.98
-52.55
-49.88
-38.56
-19.99
2.92
26.53
47.74
64.72
76.98
84.93
89.12
89.92
87.62
82.84
76.99
71.93
69.41
70.29
74.04
78.89
82.55
83.24
80.36
74.70
67.86
61.46
56.33
52.23
48.07
42.54
34.72
24.32
11.74
-2.08
-15.74
-27.28
-34.25
-34.10
-25.03
-6.80
18.84
48.46
77.98
104.01
124.64
139.54
149.50
155.63
158.80
159.51
158.02
154.54
149.37
142.78
134.91
125.74
115.11
102.91
89.13
73.93
57.66
40.76
23.79
7.25
-8.45
-23.18
-37.12
-50.71
-64.36
-77.97
-90.57
-100.28
-104.86
-102.71
-93.75
-79.59
-62.97
-46.43
-31.42
-17.94
-5.28
7.01
18.46
27.83
34.09
37.39
39.42
42.76
49.53
60.28
73.53
86.48
96.27
101.34
101.93
99.79
97.17
95.59
95.37
95.62
94.92
92.08
86.55
78.55
68.96
59.21
51.17
47.01
48.63
56.93
70.99
87.82
102.88
111.37
109.80
97.05
74.58
45.67
14.00
-17.53
-47.53
-75.97
-103.61
-131.51
-160.80
-192.76
-228.74
-269.55
-314.33
-359.88
-401.05
-432.39
-450.67
-456.36
-453.66
-448.45
-445.49
-446.23
-448.56
-448.08
-440.29
-422.26
-393.09
-353.58
-305.41
-250.88
-193.15
-136.68
-86.84
-48.53
-24.43
-13.63
-11.73
-12.55
-10.46
-2.50
10.99
27.40
43.52
57.07
67.27
74.39
78.99
81.41
81.81
80.46
77.63
73.40
67.47
59.54
50.07
40.79
34.28
32.91
37.37
46.17
56.26
64.63
69.98
73.40
77.64
85.43
98.01
114.37
131.86
147.39
158.74
165.12
166.84
164.61
158.85
149.48
136.37
119.99
101.92
84.72
71.13
63.06
60.67
62.31
65.22
66.59
64.71
59.35
51.64
43.26
35.62
29.27
23.76
17.97
10.58
0.70
-11.70
-25.76
-39.76
-51.59
-59.27
-61.49
-57.97
-49.44
-37.45
-23.89
-10.65
0.76
9.31
14.43
16.04
14.37
10.01
3.79
-3.18
-9.73
-14.85
-17.89
-18.88
-18.43
-17.58
-17.37
-18.45
-20.80
-23.94
-27.18
-30.03
-32.49
-34.97
-38.13
-42.54
-48.47
-55.79
-63.89
-71.69
-77.65
-80.08
-77.51
-69.23
-55.57
-37.90
-18.34
0.82
17.47
30.03
37.44
39.35
36.17
29.36
21.47
15.82
15.65
23.03
37.99
58.31
80.10
99.07
111.92
117.16
115.33
108.35
98.54
87.77
76.89
65.80
53.73
39.79
23.50
5.14
-14.07
-32.20
-46.95
-56.32
-59.14
-55.40
-46.37
-34.12
-21.04
-9.14
0.17
6.21
8.86
8.41
5.54
1.30
-2.98
-6.00
-6.88
-5.49
-2.51
0.83
3.30
4.08
2.96
0.24
-3.58
-7.96
-12.55
-17.06
-21.35
-25.38
-29.36
-33.76
-39.13
-45.81
-53.59
-61.40
-67.59
-70.34
-68.30
-61.22
-50.14
-36.97
-23.89
-12.67
-4.32
0.87
3.05
2.47
-0.47
-5.23
-10.87
-16.22
-20.11
-21.79
-21.30
-19.38
-17.13
-15.52
-15.04
-15.66
-17.03
-18.81
-20.89
-23.36
-26.38
-30.07
-34.50
-39.67
-45.63
-52.25
-58.98
-64.69
-67.75
-66.59
-60.25
-48.96
-34.12
-17.84
-2.19
11.31
21.95
29.58
34.26
36.07
35.25
32.41
28.73
25.63
24.34
25.35
28.23
31.91
35.20
37.26
37.83
37.13
35.50
33.16
30.09
26.18
21.31
15.38
8.30
-0.02
-9.48
-19.60
-29.25
-36.74
-40.20
-38.27
-30.68
-18.47
-3.81
10.74
22.98
31.54
35.98
36.46
33.48
27.75
20.26
12.22
4.96
-0.48
-3.72
-5.13
-5.69
-6.47
-8.18
-11.00
-14.61
-18.49
-22.23
-25.63
-28.78
-31.99
-35.69
-40.25
-45.77
-51.90
-57.73
-61.97
-63.31
-60.86
-54.44
-44.74
-33.03
-20.89
-9.77
-0.71
5.60
8.90
9.28
7.15
3.33
-0.99
-4.55
-6.41
-6.24
-4.44
-1.95
0.29
1.66
2.10
1.92
1.56
1.13
0.44
-1.05
-3.99
-8.90
-16.01
-25.06
-35.17
-44.78
-51.90
-54.56
-51.42
-42.37
-28.59
-12.26
4.14
18.57
29.84
37.70
42.48
44.69
44.76
43.08
40.11
36.57
33.32
31.09
30.12
29.94
29.60
28.03
24.62
19.48
13.32
7.04
1.13
-4.52
-10.62
-18.05
-27.39
-38.51
-50.37
-61.27
-69.03
-71.76
-68.19
-58.19
-42.80
-23.96
-4.10
14.55
30.29
42.21
50.11
54.35
55.68
55.05
53.48
51.86
50.80
50.44
50.60
50.88
50.78
49.95
48.27
45.89
43.07
40.06
36.92
33.35
28.76
22.32
13.41
1.83
-11.75
-25.81
-38.09
-46.11
-47.89
-42.54
-30.62
-13.97
4.75
22.81
38.00
49.00
55.51
57.96
57.31
54.68
51.16
47.62
44.57
42.20
40.43
38.93
37.32
35.19
32.24
28.32
23.45
17.86
11.85
5.61
-0.86
-7.83
-15.78
-25.10
-35.86
-47.47
-58.58
-67.34
-71.82
-70.67
-63.63
-51.69
-36.85
-21.50
-7.73
3.16
10.69
15.06
16.64
15.88
13.19
9.20
4.79
1.02
-1.17
-1.37
0.20
2.65
4.81
5.70
4.85
2.40
-1.13
-5.13
-9.28
-13.63
-18.54
-24.45
-31.62
-39.94
-48.84
-57.23
-63.64
-66.48
-64.44
-56.87
-44.14
-27.58
-9.22
8.75
24.40
36.42
44.12
47.42
46.83
43.40
38.67
34.38
32.03
32.38
35.20
39.28
42.91
44.48
43.08
38.75
32.42
25.42
18.88
13.21
7.90
1.82
-6.38
-17.42
-30.95
-45.37
-58.06
-65.88
-65.96
-56.60
-37.97
-12.42
16.00
42.73
64.05
78.16
85.42
87.59
86.76
84.50
81.60
78.55
76.10
75.50
78.26
85.35
96.55
109.98
122.40
129.99
129.51
119.33
99.94
73.97
45.08
16.73
-8.96
-31.62
-52.11
-71.54
-90.11
-106.77
-119.57
-126.67
-127.19
-121.70
-111.80
-99.47
-86.37
-73.40
-60.97
-49.28
-38.77
-30.10
-23.87
-20.28
-18.92
-18.80
-18.77
-17.87
-15.70
-12.52
-9.16
-6.71
-6.12
-7.73
-11.16
-15.47
-19.55
-22.76
-25.17
-27.61
-31.27
-37.09
-45.26
-55.02
-64.76
-72.43
-76.06
-74.34
-66.95
-54.59
-38.79
-21.46
-4.48
10.49
22.23
29.95
33.32
32.68
28.92
23.49
18.02
13.89
11.84
11.80
12.93
13.95
13.61
10.94
5.57
-2.23
-11.81
-22.17
-32.31
-41.34
-48.77
-54.49
-58.78
-61.92
-63.82
-63.79
-60.51
-52.65
-39.48
-21.54
-0.63
20.74
40.09
55.75
66.91
73.56
76.00
74.80
70.78
65.14
59.37
54.90
52.62
52.57
53.96
55.52
56.00
54.71
51.55
46.97
41.60
35.95
30.05
23.56
15.91
6.57
-4.55
-16.85
-28.90
-38.67
-43.91
-42.81
-34.62
-20.01
-1.02
19.49
38.55
53.87
64.15
69.22
69.77
66.99
62.31
57.14
52.72
50.00
49.45
50.99
54.02
57.54
60.34
61.41
60.18
56.71
51.67
46.01
40.54
35.57
30.67
25.06
18.01
9.45
0.33
-7.49
-11.62
-10.02
-1.58
13.35
32.96
54.60
75.49
93.59
108.07
119.30
128.37
136.56
144.72
153.24
162.18
171.51
181.24
191.28
201.16
209.80
215.70
217.33
213.72
204.80
191.38
174.69
155.85
135.41
113.38
89.36
63.06
34.58
4.59
-25.69
-54.76
-81.09
-103.47
-121.40
-135.22
-146.10
-155.63
-165.27
-175.87
-187.38
-199.03
-209.75
-218.61
-225.01
-228.59
-228.97
-225.89
-219.39
-210.28
-200.16
-190.99
-184.25
-180.15
-177.50
-174.32
-169.05
-161.55
-153.34
-146.94
-144.66
-147.42
-154.18
-162.32
-168.52
-169.93
-165.02
-153.96
-138.37
-120.62
-103.02
-87.27
-74.14
-63.65
-55.24
-48.11
-41.36
-34.04
-25.34
-14.87
-2.88
9.63
21.26
30.75
37.54
41.93
44.83
47.11
48.99
49.88
48.69
44.52
37.16
27.43
16.88
7.36
0.48
-2.61
-1.18
5.16
16.56
32.74
52.88
75.36
98.07
118.80
135.99
149.18
159.18
167.69
176.45
186.50
197.75
209.08
219.00
226.44
231.18
234.05
236.40
239.56
244.29
250.56
257.64
264.26
268.83
269.60
264.93
253.54
235.03
210.06
180.54
149.06
118.24
89.87
64.27
40.21
15.30
-13.12
-46.84
-85.91
-128.42
-170.94
-209.58
-241.20
-264.10
-277.88
-282.66
-278.51
-265.48
-244.38
-217.63
-189.52
-165.17
-148.90
-142.70
-145.78
-155.35
-168.17
-181.69
-194.45
-205.51
-214.01
-218.95
-219.69
-216.30
-209.67
-201.01
-191.05
-179.77
-166.65
-151.24
-133.57
-114.32
-94.55
-75.28
-57.51
-42.06
-29.66
-20.63
-14.76
-11.10
-8.23
-4.73
0.21
6.45
12.99
18.37
21.28
20.90
17.19
10.81
2.88
-5.26
-12.35
-17.59
-21.00
-23.39
-26.14
-30.67
-37.84
-47.47
-58.28
-68.20
-74.88
-76.41
-71.57
-60.17
-42.97
-21.57
1.68
24.12
43.13
56.90
64.72
67.15
65.66
62.05
57.90
54.35
51.99
50.94
50.98
51.60
52.30
52.83
53.47
54.87
57.60
61.61
65.99
69.34
70.42
68.92
65.51
61.33
57.31
53.68
50.26
47.04
44.83
45.11
49.25
57.60
68.90
80.66
90.09
95.11
95.03
90.37
82.36
72.32
61.44
50.66
40.83
32.58
26.04
20.72
15.39
8.56
-0.97
-13.62
-28.85
-45.43
-61.93
-77.19
-90.55
-101.95
-111.78
-120.72
-129.60
-139.12
-149.67
-160.91
-171.75
-180.40
-184.80
-183.28
-174.94
-159.97
-139.37
-114.68
-87.58
-59.81
-33.19
-9.63
9.02
21.58
28.01
29.75
29.44
30.01
33.61
40.81
50.53
60.66
69.32
75.72
80.54
85.38
91.78
100.38
110.37
119.95
127.05
130.07
128.48
123.00
115.50
108.86
106.83
113.19
130.70
159.52
196.40
235.06
267.94
288.78
294.73
287.04
269.97
248.61
226.92
206.79
188.43
171.53
156.06
142.47
131.10
121.63
112.88
103.24
91.46
77.22
61.31
45.23
30.73
18.93
9.96
2.86
-4.08
-12.66
-23.92
-37.52
-51.63
-63.56
-70.81
-72.19
-68.35
-61.51
-54.47
-49.46
-47.32
-47.65
-49.40
-51.83
-54.79
-58.70
-63.80
-69.64
-75.09
-78.72
-79.74
-78.37
-75.67
-72.98
-71.05
-69.65
-67.87
-64.62
-59.51
-52.99
-46.32
-40.87
-37.57
-36.59
-37.28
-38.75
-40.11
-40.76
-40.47
-39.15
-36.81
-33.42
-29.08
-24.05
-18.96
-14.59
-11.71
-10.80
-11.96
-14.93
-19.41
-25.00
-31.29
-37.77
-43.72
-48.45
-51.43
-52.56
-52.25
-51.17
-49.93
-48.76
-47.55
-46.10
-44.52
-43.43
-43.65
-45.83
-50.02
-55.60
-61.59
-67.04
-71.38
-74.34
-75.65
-74.80
-71.07
-63.95
-53.48
-40.50
-26.40
-12.65
-0.45
9.46
16.73
21.18
22.78
21.68
18.47
14.40
11.18
10.58
13.69
20.26
28.49
35.46
38.38
35.68
28.05
18.02
9.06
3.85
3.14
5.59
8.59
9.60
7.33
2.01
-4.90
-11.42
-15.70
-16.36
-12.75
-4.90
6.20
18.83
30.83
39.98
44.79
44.69
40.16
32.63
24.11
16.73
12.34
11.95
15.20
20.38
24.74
25.39
20.31
9.23
-6.13
-22.56
-36.44
-45.23
-48.42
-47.89
-47.06
-49.49
-57.14
-69.50
-83.74
-95.78
-102.07
-101.01
-93.35
-81.80
-69.83
-60.69
-56.48
-57.64
-62.46
-67.25
-67.18
-57.94
-37.43
-6.81
29.86
67.22
100.21
124.96
138.68
139.42
126.20
99.87
63.64
22.93
-16.08
-48.13
-70.12
-81.33
-82.98
-78.05
-71.45
-69.54
-78.36
-100.75
-133.65
-168.00
-191.80
-195.33
-175.75
-138.41
-94.24
-54.73
-27.60
-14.85
-13.75
-19.35
-27.08
-33.83
-38.15
-39.71
-38.95
-36.83
-34.83
-34.58
-37.52
-44.49
-55.47
-69.44
-84.57
-98.66
-109.53
-115.58
-116.29
-112.29
-105.79
-100.02
-98.52
-103.87
-116.23
-132.47
-146.62
-151.90
-143.72
-121.94
-91.10
-58.30
-29.86
-8.30
8.21
24.12
43.47
67.26
93.06
116.58
134.11
144.55
149.33
151.30
152.95
155.54
159.27
164.42
172.08
183.88
200.70
221.47
242.27
257.56
262.17
253.57
232.82
203.88
171.73
140.28
111.62
86.38
64.90
48.02
36.95
32.28
33.23
37.44
41.84
43.82
42.15
37.08
29.77
21.61
13.49
5.65
-1.93
-9.21
-15.79
-20.98
-24.07
-24.81
-23.65
-21.67
-20.24
-20.25
-21.74
-23.86
-25.32
-25.15
-23.30
-20.90
-19.77
-21.49
-26.52
-33.52
-39.60
-41.28
-35.72
-21.85
-0.76
24.58
50.20
72.04
86.78
92.38
88.38
75.97
57.83
37.48
18.50
3.56
-6.26
-11.40
-13.39
-13.98
-14.57
-16.02
-18.78
-23.10
-29.14
-36.85
-46.00
-56.30
-67.64
-80.21
-94.60
-111.42
-130.87
-152.22
-173.61
-192.22
-204.92
-208.99
-202.95
-187.02
-163.13
-134.53
-104.95
-78.00
-56.47
-42.04
-35.07
-34.65
-38.81
-44.91
-50.26
-52.90
-52.03
-48.15
-42.74
-37.47
-33.79
-32.50
-33.82
-37.50
-43.15
-50.14
-57.72
-65.23
-72.13
-78.08
-82.68
-85.33
-85.13
-81.18
-72.94
-60.62
-45.07
-27.49
-8.98
9.73
28.06
45.38
60.79
73.29
82.05
86.85
87.97
86.16
82.33
77.46
72.74
69.73
70.28
75.93
86.97
101.85
117.16
128.80
133.64
130.80
121.99
110.46
99.21
89.52
80.46
69.78
55.59
37.73
18.26
0.63
-11.71
-16.58
-13.79
-4.84
7.97
22.29
36.39
49.39
60.66
69.61
75.33
76.85
73.75
66.67
57.40
48.50
42.33
40.18
41.82
45.74
49.86
52.54
53.04
51.73
49.55
47.36
45.38
43.00
39.27
33.07
23.75
11.23
-4.09
-21.14
-38.00
-51.89
-59.50
-58.06
-46.63
-26.83
-2.60
21.26
40.97
54.99
63.98
69.74
73.63
75.93
76.04
73.50
68.89
63.91
60.56
60.04
61.99
64.77
66.26
65.00
60.74
54.31
47.29
41.00
36.07
32.38
29.12
25.24
19.78
12.19
2.53
-8.49
-19.58
-29.03
-35.19
-36.89
-33.89
-26.98
-17.74
-8.05
0.46
6.68
10.02
10.28
7.52
2.10
-5.17
-12.99
-19.79
-24.12
-25.13
-22.93
-18.57
-13.60
-9.58
-7.58
-7.91
-10.13
-13.38
-16.71
-19.39
-21.24
-22.65
-24.48
-27.69
-32.83
-39.60
-46.77
-52.26
-53.79
-49.56
-38.67
-21.45
0.75
25.85
51.31
74.61
93.47
106.17
111.88
110.79
104.10
93.75
81.87
70.39
60.42
52.33
45.81
40.14
34.54
28.49
21.90
15.01
8.00
0.71
-7.35
-16.66
-27.27
-38.57
-49.48
-58.92
-66.26
-71.40
-74.36
-74.94
-72.57
-66.69
-57.35
-45.60
-33.32
-22.68
-15.21
-11.63
-11.80
-15.14
-20.95
-28.21
-35.36
-40.18
-40.27
-33.84
-20.69
-2.44
17.95
37.34
53.59
65.97
74.97
81.51
86.05
88.37
87.81
83.75
76.17
65.68
53.24
39.96
26.83
15.03
5.87
0.71
0.63
5.74
15.01
26.23
36.55
43.36
45.22
42.18
35.71
27.94
20.80
15.42
11.92
9.80
8.49
7.72
7.63
8.43
9.93
11.42
11.73
9.75
5.08
-1.73
-9.26
-15.82
-20.28
-22.56
-23.75
-25.56
-29.53
-36.25
-44.89
-53.48
-59.54
-60.93
-56.69
-47.22
-34.09
-19.41
-5.10
7.54
17.84
25.61
30.81
33.39
33.42
31.25
27.73
23.97
21.04
19.58
19.60
20.51
21.49
21.69
20.69
18.58
15.87
13.35
11.61
10.75
10.25
9.02
5.88
0.06
-8.40
-18.44
-28.18
-35.43
-38.35
-36.00
-28.69
-17.69
-5.03
7.24
17.50
24.80
28.97
30.28
29.30
26.69
23.10
19.16
15.55
12.79
11.24
10.82
11.03
11.07
10.20
8.15
5.20
2.09
-0.36
-1.60
-1.58
-0.70
0.39
0.94
0.21
-2.51
-7.72
-15.43
-24.91
-34.67
-42.81
-47.71
-48.61
-45.88
-40.69
-34.46
-28.26
-22.51
-17.26
-12.51
-8.66
-6.46
-6.72
-9.76
-15.13
-21.57
-27.41
-31.24
-32.36
-31.11
-28.55
-26.07
-24.86
-25.48
-27.81
-31.27
-35.18
-39.16
-43.28
-47.95
-53.81
-61.23
-70.05
-79.39
-87.61
-92.80
-93.26
-88.29
-78.54
-65.91
-53.03
-42.40
-35.61
-32.98
-33.51
-35.36
-36.34
-34.43
-28.26
-17.31
-2.10
16.07
35.59
55.20
74.36
93.29
112.48
132.01
151.37
169.56
185.58
199.07
210.39
220.50
230.53
241.36
253.41
266.45
279.44
290.62
297.67
298.31
291.01
275.51
252.99
225.45
195.07
163.44
131.24
98.60
65.49
32.19
-0.68
-32.29
-61.98
-89.34
-114.25
-136.63
-156.40
-173.51
-187.93
-199.84
-209.47
-217.02
-222.55
-225.94
-227.05
-225.94
-222.86
-218.29
-212.70
-206.44
-199.66
-192.47
-184.93
-177.12
-168.96
-160.17
-150.25
-138.70
-125.33
-110.45
-94.92
-79.84
-66.22
-54.68
-45.20
-37.39
-30.67
-24.69
-19.31
-14.64
-10.70
-7.35
-4.30
-1.22
2.02
5.22
7.96
9.74
10.25
9.52
7.87
5.74
3.53
1.29
-1.16
-4.23
-8.30
-13.59
-19.99
-26.93
-33.49
-38.55
-40.96
-39.91
-35.16
-27.22
-17.19
-6.51
3.56
12.14
18.90
23.85
27.11
28.79
28.97
27.84
25.86
23.72
22.20
21.82
22.62
24.16
25.60
26.10
25.25
23.13
20.34
17.67
15.59
14.10
12.53
9.92
5.48
-1.09
-9.42
-18.61
-27.53
-35.02
-40.16
-42.18
-40.60
-35.31
-26.68
-15.57
-3.27
8.83
19.55
28.11
34.25
38.04
39.77
39.86
38.72
36.88
34.87
33.20
32.13
31.58
31.06
29.89
27.48
23.61
18.59
13.07
7.87
3.54
0.12
-2.76
-5.81
-9.67
-14.80
-21.23
-28.59
-36.12
-42.80
-47.45
-49.01
-46.89
-41.12
-32.49
-22.28
-11.98
-2.85
4.34
9.30
12.10
12.95
12.15
10.16
7.63
5.45
4.43
5.13
7.43
10.66
13.76
15.79
16.28
15.41
13.83
12.25
11.03
9.99
8.52
5.94
1.83
-3.77
-10.42
-17.37
-23.83
-29.02
-32.18
-32.63
-29.88
-23.89
-15.16
-4.75
5.96
15.67
23.46
28.97
32.34
34.01
34.53
34.48
34.33
34.48
35.19
36.56
38.48
40.56
42.22
42.71
41.30
37.66
31.95
24.95
17.73
11.31
6.18
2.16
-1.55
-5.92
-11.69
-19.02
-27.40
-35.72
-42.56
-46.55
-46.78
-43.01
-35.81
-26.41
-16.25
-6.70
1.32
7.33
11.20
12.99
12.86
11.13
8.35
5.29
2.79
1.55
1.85
3.47
5.76
7.93
9.26
9.32
8.08
5.84
3.05
0.08
-3.08
-6.87
-12.05
-19.34
-28.94
-40.29
-52.06
-62.51
-70.03
-73.60
-72.93
-68.28
-60.15
-49.20
-36.27
-22.39
-8.91
2.96
12.50
19.73
25.49
30.97
37.25
44.87
53.71
63.14
72.23
80.10
85.97
89.33
89.98
88.18
84.63
80.38
76.46
73.55
71.68
70.22
68.14
64.25
57.64
47.80
34.86
19.63
3.48
-11.77
-24.30
-32.65
-36.20
-35.33
-31.25
-25.57
-19.81
-14.98
-11.59
-9.76
-9.44
-10.55
-12.94
-16.19
-19.65
-22.46
-23.87
-23.47
-21.33
-17.99
-14.21
-10.73
-8.00
-6.18
-5.23
-5.07
-5.64
-6.88
-8.84
-11.49
-14.82
-18.81
-23.37
-28.33
-33.15
-36.99
-38.85
-37.87
-33.74
-26.86
-18.31
-9.47
-1.61
4.45
8.40
10.29
10.29
8.63
5.66
1.91
-1.80
-4.60
-5.91
-5.68
-4.54
-3.47
-3.39
-4.71
-7.22
-10.27
-13.23
-15.80
-18.11
-20.55
-23.62
-27.72
-33.08
-39.61
-46.88
-53.88
-59.29
-61.67
-60.06
-54.30
-45.13
-33.92
-22.18
-11.17
-1.73
5.70
11.06
14.48
16.32
17.05
17.18
17.19
17.46
18.22
19.58
21.48
23.60
25.43
26.28
25.65
23.35
19.66
15.13
10.26
5.25
-0.05
-6.08
-13.17
-21.33
-30.00
-38.19
-44.60
-48.07
-47.84
-43.74
-36.24
-26.31
-15.22
-4.27
5.46
13.18
18.48
21.32
21.97
20.88
18.67
15.98
13.43
11.51
10.57
10.60
11.22
11.76
11.53
10.11
7.62
4.57
1.54
-1.14
-3.69
-6.67
-10.75
-16.29
-23.15
-30.79
-38.31
-44.81
-49.36
-51.15
-49.62
-44.63
-36.52
-26.18
-14.74
-3.32
7.16
16.16
23.28
28.34
31.30
32.27
31.69
30.26
28.91
28.58
29.78
32.31
35.17
36.94
36.36
33.08
27.71
21.67
16.33
12.36
9.35
6.05
1.15
-6.13
-15.47
-25.52
-34.37
-40.15
-41.52
-37.98
-29.88
-18.36
-5.10
8.20
19.98
29.20
35.57
39.68
43.12
48.38
58.30
75.40
100.86
133.94
172.00
211.22
247.67
278.45
302.15
318.91
329.69
335.70
337.66
335.79
329.87
319.74
305.59
288.14
268.43
247.35
225.32
201.98
176.58
148.46
117.56
84.63
50.90
17.48
-15.15
-47.16
-79.13
-111.54
-144.42
-177.27
-209.11
-238.70
-264.67
-285.75
-300.90
-309.64
-312.13
-309.20
-302.19
-292.57
-281.71
-270.59
-259.77
-249.44
-239.51
-229.77
-220.04
-210.32
-200.85
-192.07
-184.32
-177.61
-171.40
-164.64
-155.95
-144.15
-128.72
-110.14
-89.86
-69.92
-52.28
-38.25
-28.06
-20.98
-15.66
-10.74
-5.24
1.14
8.02
14.48
19.40
21.78
21.21
18.10
13.72
9.97
8.74
11.23
17.55
26.61
36.53
45.29
51.23
53.49
51.95
47.04
39.61
30.80
21.94
14.45
9.56
7.93
9.50
13.37
18.24
22.77
26.00
27.57
27.64
26.68
25.29
24.00
23.17
22.98
23.40
24.22
25.04
25.51
25.37
24.54
23.12
21.32
19.28
17.16
15.03
12.91
10.79
8.47
5.67
2.06
-2.53
-7.93
-13.46
-18.02
-20.32
-19.30
-14.55
-6.59
3.19
13.06
21.47
27.58
31.47
33.97
36.18
38.97
42.60
46.86
51.27
55.48
59.49
63.56
67.99
72.94
78.20
83.47
88.41
92.83
96.77
100.41
103.98
107.67
111.44
115.13
118.44
121.05
122.78
123.72
124.34
125.36
127.53
131.32
136.73
143.03
148.91
152.75
152.93
148.39
139.04
126.06
111.71
98.77
89.52
84.84
83.80
84.02
82.59
77.19
66.81
51.81
33.45
13.27
-7.48
-27.80
-46.98
-64.37
-79.36
-91.59
-101.10
-108.33
-114.16
-119.63
-125.81
-133.59
-143.38
-155.09
-167.81
-180.11
-190.33
-197.02
-199.55
-198.12
-193.70
-187.70
-181.44
-175.92
-171.59
-168.38
-165.84
-163.24
-159.82
-154.95
-148.27
-139.86
-130.19
-120.03
-110.26
-101.64
-94.64
-89.29
-85.25
-81.87
-78.48
-74.62
-70.29
-65.93
-62.31
-60.34
-60.73
-63.63
-68.44
-73.76
-77.73
-78.60
-75.26
-67.65
-56.73
-44.03
-31.18
-19.48
-9.92
-3.20
0.13
-0.19
-3.85
-9.86
-16.75
-22.94
-27.15
-28.66
-27.24
-23.11
-17.06
-10.45
-5.06
-2.66
-4.30
-9.87
-18.08
-27.19
-35.87
-43.91
-52.15
-61.85
-73.70
-87.24
-100.74
-111.80
-118.33
-119.15
-114.39
-105.21
-93.22
-79.84
-66.03
-52.37
-39.46
-28.36
-20.53
-17.48
-19.86
-26.98
-36.76
-46.34
-53.22
-56.09
-55.25
-52.35
-49.46
-48.46
-50.24
-54.45
-59.46
-62.70
-61.31
-53.08
-37.25
-15.07
10.39
35.26
56.31
72.33
84.47
95.66
109.06
126.59
148.15
171.79
194.76
214.57
229.68
239.61
244.59
245.25
242.33
236.71
229.28
221.13
213.20
206.22
200.68
196.63
193.64
190.69
186.35
179.32
169.06
156.19
142.24
128.86
116.74
105.14
92.37
76.95
58.60
38.65
19.23
2.29
-11.31
-21.81
-29.87
-35.67
-38.53
-37.38
-31.51
-21.36
-8.67
4.07
14.27
20.17
21.09
17.46
10.59
2.28
-5.59
-11.42
-14.26
-14.05
-11.66
-8.61
-6.65
-7.19
-10.85
-17.35
-25.71
-34.64
-42.87
-49.39
-53.75
-56.14
-57.66
-60.20
-65.83
-75.92
-90.15
-106.10
-119.95
-127.85
-127.59
-119.36
-105.55
-89.46
-73.96
-60.67
-50.10
-42.27
-37.35
-35.76
-37.63
-42.37
-48.42
-53.66
-56.33
-55.74
-52.59
-48.57
-45.60
-44.91
-46.62
-49.79
-53.09
-55.42
-56.45
-56.78
-57.60
-60.25
-65.81
-74.65
-86.23
-99.06
-110.80
-118.44
-118.93
-110.01
-91.14
-64.19
-33.06
-2.59
23.06
41.68
53.33
59.66
62.56
63.33
62.44
60.21
57.47
55.77
56.73
61.08
68.00
75.36
80.67
82.39
80.46
76.12
70.99
66.17
61.61
56.22
48.54
37.55
23.29
7.20
-8.20
-19.93
-25.40
-23.28
-13.85
1.14
19.18
37.75
55.04
70.10
82.46
91.80
97.76
100.16
99.32
96.13
91.78
87.29
83.04
78.83
74.16
68.72
62.55
55.98
49.31
42.54
35.43
27.65
19.08
9.74
-0.43
-11.76
-24.76
-39.60
-55.56
-70.68
-82.13
-87.14
-83.93
-72.65
-55.36
-35.25
-15.65
0.98
13.35
21.09
24.39
23.74
19.76
13.45
6.14
-0.59
-5.51
-8.00
-8.35
-7.53
-6.71
-6.80
-8.13
-10.53
-13.70
-17.53
-22.41
-29.06
-38.37
-50.98
-67.04
-86.02
-106.53
-126.36
-142.56
-151.93
-151.80
-141.01
-120.53
-93.31
-63.44
-34.76
-9.81
10.70
27.45
41.79
54.86
67.30
79.14
90.05
99.70
107.84
114.49
119.77
123.85
126.84
128.62
128.93
127.48
124.31
119.87
115.05
110.75
107.31
104.16
99.90
92.89
82.11
68.05
52.93
40.17
33.40
34.92
44.81
60.90
79.70
97.76
112.84
124.26
132.42
137.96
141.20
142.06
140.56
137.08
132.36
127.06
121.24
114.43
106.12
96.25
85.48
74.63
64.10
53.56
42.24
29.77
16.68
4.30
-6.11
-14.40
-21.94
-31.09
-43.91
-60.87
-80.30
-98.87
-112.87
-119.74
-118.90
-111.90
-101.57
-90.96
-82.35
-76.88
-74.69
-75.37
-78.49
-83.73
-90.80
-99.19
-108.05
-116.29
-122.83
-126.90
-128.24
-127.10
-124.11
-119.88
-114.85
-109.01
-101.99
-93.42
-83.30
-72.28
-61.42
-51.82
-44.04
-37.81
-32.14
-25.71
-17.36
-6.51
6.82
22.09
38.59
55.64
72.72
89.38
105.07
119.03
130.22
137.60
140.47
138.86
133.64
126.33
118.67
112.03
107.11
104.06
102.54
102.08
102.29
102.88
103.41
103.31
101.79
98.07
91.67
82.65
71.47
58.87
45.50
31.82
18.23
5.45
-5.32
-12.54
-14.98
-12.32
-5.49
3.61
12.80
20.36
25.38
27.57
26.84
23.03
16.01
6.02
-5.92
-18.09
-28.48
-35.59
-38.98
-39.40
-38.40
-37.62
-38.18
-40.48
-44.23
-48.87
-53.91
-59.14
-64.64
-70.65
-77.47
-85.31
-94.32
-104.42
-115.07
-125.18
-133.08
-136.88
-135.11
-127.30
-114.36
-98.40
-82.11
-67.90
-57.40
-51.15
-48.93
-50.08
-53.78
-59.14
-65.06
-70.33
-73.72
-74.50
-72.57
-68.66
-64.04
-60.07
-57.82
-57.73
-59.63
-62.90
-66.76
-70.39
-73.14
-74.60
-74.67
-73.66
-72.37
-71.91
-73.34
-77.10
-82.51
-87.77
-90.30
-87.52
-77.66
-60.33
-36.73
-9.26
18.98
44.98
66.40
81.93
91.48
95.93
96.92
96.43
96.28
97.94
102.00
108.18
115.35
121.71
125.56
125.75
122.23
116.15
109.43
104.01
100.99
100.13
99.88
98.00
92.47
82.22
67.54
49.92
31.56
14.91
2.19
-4.79
-4.86
2.19
15.39
32.55
50.62
66.49
77.76
83.29
83.21
78.54
70.72
61.20
51.32
42.19
34.84
30.02
28.05
28.55
30.44
32.18
32.18
29.38
23.58
15.48
6.32
-2.65
-10.66
-17.73
-24.49
-31.83
-40.56
-51.04
-62.94
-75.30
-86.57
-94.94
-98.79
-97.16
-90.17
-78.95
-65.40
-51.67
-39.54
-30.14
-23.91
-20.79
-20.47
-22.44
-26.05
-30.36
-34.21
-36.34
-35.86
-32.58
-27.22
-21.36
-16.81
-15.09
-16.77
-21.38
-27.64
-34.03
-39.42
-43.39
-46.27
-48.81
-51.85
-56.06
-61.83
-69.08
-77.24
-85.12
-90.95
-92.86
-89.52
-80.76
-67.86
-53.12
-39.06
-27.56
-19.39
-14.27
-11.45
-10.18
-10.00
-10.53
-11.28
-11.52
-10.46
-7.72
-3.57
1.00
4.62
6.19
5.22
2.11
-2.10
-6.31
-9.79
-12.52
-15.16
-18.56
-23.36
-29.73
-37.30
-45.42
-53.19
-59.44
-62.66
-61.22
-53.93
-40.85
-23.54
-4.80
12.43
26.19
35.96
42.51
46.92
49.85
51.44
51.71
51.18
50.96
52.25
55.60
60.46
65.44
69.12
70.89
71.17
71.07
71.45
72.46
73.34
73.01
70.66
66.15
59.83
52.16
43.30
33.07
21.48
9.19
-2.25
-10.69
-14.26
-12.13
-5.03
5.17
16.12
25.84
33.27
38.12
40.58
40.78
38.74
34.48
28.39
21.35
14.66
9.63
7.14
7.32
9.56
12.70
15.46
16.82
16.34
14.25
11.27
8.32
6.11
4.71
3.56
1.61
-2.22
-8.64
-17.66
-28.49
-39.73
-49.57
-56.27
-58.69
-56.54
-50.65
-42.66
-34.71
-28.89
-26.88
-29.86
-38.46
-52.69
-71.73
-93.57
-115.11
-132.49
-141.88
-140.38
-126.73
-101.54
-67.26
-27.66
12.78
49.67
79.55
100.66
113.38
120.07
124.24
129.16
136.50
145.55
153.46
156.54
151.90
138.94
119.87
99.14
81.87
72.08
71.44
78.86
91.36
105.20
117.11
124.87
127.30
123.99
114.89
100.36
81.25
59.00
35.56
13.00
-6.89
-23.15
-35.81
-45.93
-55.17
-65.32
-77.53
-91.66
-106.20
-118.62
-126.36
-128.01
-123.92
-116.13
-107.61
-101.02
-97.91
-98.33
-101.09
-104.37
-106.28
-105.36
-100.88
-92.83
-81.86
-68.98
-55.27
-41.66
-28.80
-17.23
-7.46
-0.12
4.21
5.24
3.07
-1.66
-8.04
-15.18
-22.72
-31.03
-40.94
-53.26
-67.95
-83.76
-98.35
-109.03
-113.93
-112.89
-107.62
-101.06
-96.09
-94.37
-95.66
-98.00
-98.59
-94.59
-83.93
-65.56
-39.61
-7.19
29.81
69.06
108.21
145.26
178.54
206.73
228.39
242.04
246.49
241.48
228.34
209.96
190.22
172.81
160.20
153.14
150.79
151.31
152.26
151.22
146.12
135.64
119.73
99.56
77.29
55.29
35.31
18.01
2.94
-10.88
-24.17
-36.91
-48.27
-57.13
-62.63
-64.75
-64.25
-62.40
-60.36
-58.79
-57.67
-56.60
-55.09
-53.10
-51.12
-49.97
-50.34
-52.37
-55.45
-58.38
-59.92
-59.12
-55.50
-49.12
-40.15
-28.93
-15.74
-0.99
14.77
30.85
46.44
60.86
73.69
84.93
94.77
103.12
109.37
112.07
109.22
98.97
80.40
54.36
23.65
-7.23
-33.05
-49.07
-52.49
-43.34
-24.71
-2.01
18.57
31.98
35.70
30.14
17.83
1.69
-16.24
-35.38
-56.05
-78.33
-101.35
-123.26
-142.23
-157.28
-168.80
-178.26
-187.29
-197.37
-209.85
-226.50
-249.66
-281.42
-322.37
-370.01
-418.64
-460.67
-489.17
-500.04
-492.87
-469.99
-434.72
-389.94
-338.15
-282.44
-227.40
-178.67
-141.23
-117.19
-104.72
-98.62
-92.57
-81.58
-63.41
-38.35
-7.97
26.27
63.55
103.10
143.40
181.69
214.58
239.04
253.58
258.63
256.05
248.11
236.49
221.95
204.78
185.62
166.02
148.40
135.26
128.16
126.93
129.74
133.93
136.95
137.45
135.36
131.55
127.04
122.61
118.74
115.77
113.94
113.24
113.15
112.66
110.58
106.10
99.17
90.50
81.20
72.15
63.74
55.88
48.39
41.34
35.00
29.58
24.77
19.53
12.40
2.08
-11.67
-27.78
-43.86
-56.75
-63.67
-63.02
-54.76
-40.24
-21.65
-1.24
18.96
37.32
52.40
62.94
68.09
67.78
62.88
55.18
46.91
40.01
35.68
34.13
34.74
36.45
38.17
39.12
38.82
37.22
34.51
31.17
27.77
24.80
22.45
20.49
18.22
14.84
10.09
4.45
-0.66
-3.38
-2.20
3.67
14.13
28.46
45.65
64.46
83.28
100.09
112.71
119.48
120.06
115.67
108.78
102.12
97.67
96.03
96.69
98.58
100.80
103.05
105.34
107.81
110.34
112.52
113.76
113.28
110.12
102.98
90.50
71.70
46.53
16.39
-16.11
-47.72
-75.56
-97.98
-114.88
-127.53
-137.74
-146.94
-155.54
-162.69
-166.65
-165.49
-157.80
-143.31
-122.84
-98.16
-71.32
-44.12
-17.98
6.34
28.41
48.15
65.62
80.90
93.91
104.28
111.54
115.38
115.96
113.96
110.27
105.42
99.20
90.85
79.42
64.53
46.86
28.05
10.34
-4.20
-14.22
-19.39
-20.26
-17.90
-13.52
-8.32
-3.56
-0.68
-1.34
-7.06
-18.77
-36.11
-57.19
-78.90
-97.79
-111.10
-117.63
-118.01
-114.24
-108.82
-103.86
-100.38
-98.25
-96.68
-94.80
-92.24
-89.15
-86.13
-83.61
-81.78
-80.50
-79.45
-78.33
-76.78
-74.16
-69.54
-61.91
-50.70
-36.37
-20.48
-5.21
7.41
16.35
21.81
24.89
26.87
28.45
29.66
30.13
29.69
28.92
28.85
30.51
34.17
39.10
43.86
46.95
47.45
45.35
41.33
36.39
31.39
26.70
22.08
16.82
10.03
1.18
-9.37
-20.10
-28.59
-32.40
-30.12
-22.05
-10.24
2.57
14.00
22.75
28.66
32.04
33.19
32.02
28.27
22.05
13.97
5.17
-3.04
-9.82
-14.96
-19.11
-23.30
-28.38
-34.60
-41.34
-47.43
-51.70
-53.69
-53.91
-53.72
-54.92
-59.01
-66.91
-78.88
-94.46
-112.43
-130.50
-145.40
-153.36
-151.28
-137.97
-114.69
-85.03
-53.56
-24.42
-0.37
17.63
29.77
36.95
40.24
40.78
39.93
39.20
39.93
42.88
47.87
53.80
59.06
62.10
62.00
58.74
53.09
46.25
39.27
32.74
26.58
20.30
13.08
4.19
-6.77
-19.64
-33.62
-47.36
-59.04
-66.84
-69.27
-65.62
-56.14
-42.01
-25.12
-7.65
8.27
20.89
29.14
32.74
32.25
28.88
24.15
19.56
16.10
14.29
14.13
15.28
17.20
19.27
20.86
21.42
20.64
18.59
15.58
12.09
8.40
4.44
-0.33
-6.73
-15.41
-26.36
-38.56
-50.02
-58.24
-61.00
-57.16
-47.01
-32.30
-15.58
0.62
14.43
24.87
31.73
35.11
35.20
32.24
26.82
20.01
13.33
8.35
6.11
6.80
9.61
13.04
15.59
16.19
14.72
11.84
8.58
5.78
3.43
0.73
-3.66
-10.85
-21.11
-33.50
-46.11
-56.61
-62.87
-63.50
-58.13
-47.29
-32.32
-15.02
2.62
18.76
32.03
41.70
47.70
50.38
50.38
48.44
45.36
42.03
39.31
37.84
37.87
39.11
40.77
41.89
41.68
39.82
36.41
31.92
26.82
21.44
15.89
10.05
3.68
-3.64
-12.38
-22.79
-34.58
-46.61
-56.98
-63.51
-64.45
-59.25
-48.70
-34.67
-19.33
-4.53
8.52
19.08
26.60
30.68
31.13
28.32
23.23
17.32
12.04
8.44
6.88
6.99
7.83
8.23
7.09
3.78
-1.75
-8.87
-16.54
-23.70
-29.73
-34.71
-39.51
-45.40
-53.39
-63.69
-75.23
-85.94
-93.02
-93.95
-87.05
-72.01
-49.94
-22.99
5.92
33.52
56.55
72.30
79.23
77.48
69.05
57.19
45.53
36.95
32.95
33.65
38.21
45.54
54.62
64.56
74.39
83.03
89.26
92.12
91.17
86.47
78.62
68.40
56.61
43.74
30.02
15.59
0.90
-13.03
-24.60
-31.97
-33.72
-29.37
-19.58
-5.82
10.16
26.88
43.36
58.85
72.62
83.67
90.91
93.57
91.67
86.15
78.58
70.48
62.76
55.35
47.46
38.09
26.74
13.72
0.08
-12.95
-24.50
-34.49
-43.68
-53.24
-64.30
-77.54
-92.87
-109.27
-124.87
-137.15
-143.45
-141.73
-131.21
-112.84
-89.16
-63.64
-39.71
-19.94
-5.66
3.01
6.81
6.93
4.84
2.03
-0.12
-0.63
0.83
3.92
7.86
11.86
15.44
18.53
21.34
24.00
26.22
27.33
26.50
23.09
16.83
7.96
-2.83
-14.30
-24.75
-32.20
-34.81
-31.41
-21.99
-7.80
9.08
26.22
41.51
53.45
61.22
64.60
63.89
59.89
53.80
47.13
41.22
36.93
34.39
33.18
32.67
32.31
31.90
31.43
30.92
30.32
29.37
27.69
24.78
20.10
13.08
3.31
-9.28
-24.11
-39.67
-53.57
-63.02
-65.48
-59.60
-45.76
-26.01
-3.51
18.42
37.19
51.29
60.22
64.02
63.00
57.68
49.12
39.02
29.57
22.84
20.08
21.20
24.88
29.19
32.34
33.37
32.21
29.38
25.49
20.77
14.93
7.34
-2.73
-15.79
-31.73
-49.64
-67.71
-83.43
-94.14
-97.82
-93.79
-83.01
-67.67
-50.50
-33.88
-19.40
-7.93
0.12
4.54
5.33
2.96
-1.46
-6.29
-9.93
-11.45
-10.83
-8.93
-6.89
-5.61
-5.45
-6.18
-7.39
-8.80
-10.43
-12.57
-15.69
-20.21
-26.46
-34.65
-44.58
-55.45
-65.74
-73.31
-75.93
-72.15
-61.94
-46.83
-29.40
-12.40
2.14
13.24
20.82
25.10
26.21
24.16
19.28
12.53
5.51
0.07
-2.48
-1.85
1.14
5.02
8.27
9.96
9.95
8.75
7.10
5.48
3.88
1.71
-1.90
-7.77
-16.29
-27.11
-39.05
-50.14
-58.10
-60.83
-57.09
-46.90
-31.52
-13.08
6.00
23.63
38.33
49.17
55.76
58.00
56.19
51.13
44.14
36.91
31.08
27.80
27.36
29.10
31.66
33.45
33.29
30.76
26.29
20.80
15.27
10.21
5.52
0.60
-5.36
-13.01
-22.61
-33.87
-45.74
-56.53
-64.06
-66.21
-61.61
-50.35
-34.04
-15.50
2.25
16.85
27.22
33.40
36.04
35.83
33.22
28.68
23.00
17.39
13.26
11.61
12.53
15.13
17.92
19.51
19.24
17.26
14.27
10.91
7.43
3.56
-1.14
-7.12
-14.59
-23.49
-33.48
-43.83
-53.26
-59.98
-62.14
-58.41
-48.67
-34.14
-17.06
0.09
15.40
27.88
37.28
43.71
47.24
47.86
45.80
41.82
37.23
33.62
32.12
33.09
35.91
39.30
41.83
42.50
40.99
37.63
33.11
28.08
22.91
17.69
12.33
6.79
1.05
-4.90
-11.28
-18.40
-26.52
-35.42
-44.19
-51.38
-55.36
-55.10
-50.47
-42.31
-31.86
-20.33
-8.52
3.04
13.74
22.69
28.64
30.57
28.22
22.60
15.70
9.94
7.29
8.61
13.55
20.86
28.99
36.62
42.91
47.55
50.45
51.68
51.21
49.04
45.24
40.09
34.21
28.66
24.84
24.27
28.12
36.71
49.32
64.18
78.96
91.49
100.21
104.50
104.47
100.58
93.27
82.80
69.41
53.69
36.77
20.35
6.18
-4.42
-11.24
-15.32
-18.67
-23.43
-31.05
-41.47
-53.26
-64.23
-72.57
-77.77
-80.81
-83.58
-87.91
-94.53
-102.67
-110.32
-114.89
-114.10
-106.80
-93.42
-76.23
-59.05
-46.30
-41.30
-44.73
-53.68
-62.45
-64.82
-56.69
-38.06
-13.02
11.76
29.58
35.87
29.59
13.19
-8.41
-29.29
-44.22
-50.02
-46.26
-35.11
-20.31
-5.64
6.25
14.17
17.86
17.14
11.36
-0.16
-17.29
-38.43
-60.44
-79.51
-92.41
-97.47
-95.16
-87.37
-76.59
-64.74
-52.59
-39.91
-26.07
-10.99
4.23
17.42
26.05
28.39
24.40
15.98
6.21
-1.84
-6.32
-7.11
-5.57
-3.52
-2.21
-1.69
-0.81
2.15
8.54
18.60
31.17
43.88
53.93
58.95
57.96
51.89
43.53
36.76
35.46
42.17
57.27
78.59
102.00
122.45
135.45
138.29
130.64
114.30
92.22
67.45
42.21
17.69
-5.62
-27.40
-47.02
-63.77
-77.03
-86.94
-94.39
-100.79
-107.44
-114.99
-123.10
-130.62
-136.05
-138.04
-136.00
-130.31
-122.25
-113.62
-106.01
-100.16
-95.61
-90.81
-83.79
-73.07
-58.43
-41.03
-23.19
-7.52
3.94
10.38
12.25
11.05
8.71
6.95
7.04
9.61
14.75
22.05
30.70
39.64
47.69
53.92
57.84
59.46
59.15
57.20
53.59
47.96
39.75
28.61
14.58
-1.75
-19.41
-36.91
-52.19
-62.65
-65.49
-58.43
-40.72
-13.86
18.40
50.93
78.65
97.92
107.33
107.62
100.95
89.95
77.14
64.66
54.31
47.50
44.92
46.20
49.87
53.61
55.23
53.35
47.99
40.46
32.68
26.32
22.16
19.99
18.86
17.61
15.36
11.85
7.60
4.05
3.08
6.49
15.30
29.37
47.35
66.79
84.55
97.27
102.17
97.33
82.14
57.53
25.91
-8.98
-42.87
-71.86
-92.72
-103.20
-102.27
-90.51
-70.16
-44.90
-19.17
2.52
16.34
20.11
14.02
0.11
-18.35
-37.85
-55.24
-68.17
-75.58
-78.01
-80.16
-86.17
-98.07
-114.37
-131.55
-146.71
-158.38
-165.80
-170.24
-172.31
-171.41
-166.39
-156.26
-140.40
-120.35
-97.56
-73.20
-48.15
-22.45
5.02
35.97
72.39
115.46
164.87
218.47
272.35
321.45
361.18
388.56
402.41
403.04
391.66
370.10
341.21
308.87
277.57
251.68
234.09
225.30
223.45
225.27
227.54
228.12
226.13
221.34
213.85
203.97
192.27
179.89
168.14
157.90
149.00
139.81
127.73
110.26
86.05
55.53
20.78
-15.39
-50.44
-82.89
-112.45
-139.79
-165.81
-191.19
-215.83
-238.40
-256.07
-264.73
-259.96
-238.62
-200.42
-148.84
-90.45
-33.22
15.94
52.83
76.55
88.79
92.48
90.47
84.77
76.36
65.41
51.68
34.96
15.45
-5.96
-27.87
-49.04
-69.00
-88.34
-108.16
-129.00
-150.05
-169.23
-184.29
-194.10
-199.21
-200.93
-199.84
-194.69
-182.78
-161.88
-132.60
-99.43
-69.73
-50.80
-46.83
-57.37
-78.15
-103.70
-129.96
-155.28
-179.41
-201.54
-219.07
-228.10
-225.51
-211.07
-188.05
-162.09
-138.66
-120.98
-109.46
-102.75
-99.69
-100.41
-106.24
-118.39
-136.58
-158.58
-180.74
-199.19
-210.82
-213.85
-207.77
-193.26
-171.96
-146.30
-119.05
-92.76
-69.38
-49.93
-34.57
-22.82
-13.83
-6.64
-0.23
6.28
13.49
21.57
30.17
38.53
45.73
50.98
53.96
54.90
54.51
53.69
53.05
52.55
51.28
47.82
40.95
30.44
17.60
5.17
-3.70
-6.56
-2.65
6.93
19.75
33.33
46.03
57.27
66.88
74.17
77.59
75.24
66.16
51.42
34.29
19.22
10.04
8.48
13.65
22.81
32.83
41.45
47.81
52.01
54.33
54.55
51.81
45.20
34.49
20.70
6.32
-5.08
-10.03
-6.27
6.38
25.82
48.42
70.18
87.98
100.31
107.26
109.86
109.23
106.07
100.55
92.75
83.09
72.51
62.30
53.64
47.09
42.41
38.75
35.02
30.42
24.60
17.79
10.21
1.86
-7.79
-19.66
-34.30
-51.18
-67.98
-80.78
-85.26
-78.45
-60.24
-33.71
-4.23
22.64
43.13
56.14
62.85
65.34
65.29
63.46
60.03
55.35
50.41
46.56
44.90
45.64
48.00
50.70
52.67
53.57
53.79
54.24
55.64
58.13
60.99
62.78
61.66
55.98
45.02
29.48
11.67
-4.92
-16.62
-20.77
-16.58
-5.38
9.95
26.12
40.42
51.37
58.61
62.41
63.16
61.12
56.64
50.45
43.77
38.04
34.32
32.77
32.58
32.35
30.84
27.56
23.04
18.44
14.90
12.92
12.08
11.24
8.96
4.13
-3.61
-13.61
-24.27
-33.40
-38.71
-38.45
-32.03
-20.17
-4.69
12.10
28.03
41.59
51.98
58.92
62.37
62.46
59.58
54.56
48.71
43.49
40.13
39.09
39.89
41.40
42.29
41.53
38.79
34.46
29.39
24.35
19.67
14.94
9.30
1.69
-8.51
-21.28
-35.81
-50.68
-64.09
-74.13
-79.19
-78.25
-71.30
-59.42
-44.71
-29.70
-16.68
-7.20
-1.73
0.11
-0.82
-3.55
-7.14
-10.74
-13.54
-14.90
-14.51
-12.54
-9.70
-7.01
-5.43
-5.49
-7.18
-9.92
-12.93
-15.54
-17.59
-19.40
-21.74
-25.54
-31.41
-39.37
-48.45
-56.77
-61.86
-61.36
-53.94
-39.77
-20.67
0.53
20.84
37.99
50.82
59.10
63.09
63.15
59.76
53.71
46.39
39.56
34.79
32.83
33.15
34.26
34.33
32.05
27.12
20.31
12.93
6.14
0.48
-4.32
-9.13
-15.08
-23.06
-33.33
-45.18
-56.85
-65.99
-70.29
-68.36
-60.24
-47.48
-32.58
-18.20
-6.53
1.10
4.18
2.84
-2.40
-10.59
-20.38
-30.18
-38.33
-43.69
-45.92
-45.62
-44.10
-42.87
-43.13
-45.37
-49.37
-54.42
-59.65
-64.46
-68.68
-72.54
-76.67
-81.82
-88.64
-97.28
-106.93
-115.69
-120.80
-119.38
-109.42
-90.53
-64.19
-33.30
-1.33
28.55
54.03
73.84
87.64
95.83
99.41
99.93
99.19
98.95
100.38
103.64
107.72
110.57
109.75
103.24
90.33
71.99
50.65
29.44
11.08
-3.07
-13.32
-21.41
-29.70
-40.01
-52.75
-66.48
-78.30
-84.85
-83.53
-73.58
-56.22
-34.26
-11.00
10.70
29.01
43.06
52.48
57.20
57.41
53.82
47.89
41.56
36.76
34.70
35.38
37.68
39.93
40.58
38.83
34.95
29.82
24.51
19.64
15.12
10.23
3.97
-4.53
-15.53
-28.41
-41.55
-52.48
-58.43
-57.19
-47.90
-31.56
-10.80
10.96
30.61
46.17
56.92
63.04
64.93
62.88
57.07
48.04
37.01
25.73
15.95
8.73
4.05
0.83
-2.38
-6.76
-12.64
-19.51
-26.39
-32.37
-37.09
-40.78
-44.12
-47.94
-52.99
-59.76
-68.31
-78.02
-87.48
-94.44
-96.45
-91.56
-79.19
-60.49
-38.05
-15.24
4.76
19.70
28.57
31.49
29.43
23.85
16.45
8.84
2.36
-2.12
-4.38
-4.76
-3.95
-2.72
-1.70
-1.31
-1.76
-3.17
-5.69
-9.41
-14.42
-20.65
-28.02
-36.37
-45.49
-54.81
-63.23
-68.97
-70.00
-64.74
-52.81
-35.53
-15.48
4.48
22.46
38.11
52.36
66.38
80.43
93.54
104.01
110.57
113.30
113.74
113.88
114.94
116.38
116.10
111.65
101.62
86.50
68.61
50.90
35.60
23.40
13.41
3.91
-6.71
-19.20
-33.14
-47.15
-59.30
-67.58
-70.48
-67.24
-58.14
-44.40
-27.87
-10.64
5.48
19.05
29.16
35.19
36.83
34.09
27.48
18.13
7.61
-2.42
-10.75
-17.01
-21.72
-26.01
-30.96
-37.12
-44.28
-51.58
-58.05
-63.07
-66.68
-69.55
-72.69
-77.22
-84.01
-93.32
-104.51
-115.89
-124.83
-128.44
-124.57
-112.58
-93.87
-71.33
-48.43
-27.94
-11.25
1.57
11.22
18.35
23.11
25.32
24.96
22.67
19.76
17.80
17.90
20.16
23.59
26.64
27.91
26.81
23.76
19.76
15.84
12.51
9.58
6.40
2.21
-3.53
-10.98
-19.94
-29.91
-39.93
-48.61
-54.18
-54.88
-49.61
-38.42
-22.69
-4.77
12.87
28.43
41.11
51.02
58.64
64.29
68.04
69.89
70.13
69.53
69.08
69.56
71.13
73.23
74.88
75.11
73.33
69.49
63.89
56.96
49.15
40.86
32.48
24.33
16.51
8.76
0.50
-8.98
-20.16
-32.76
-45.55
-56.52
-63.35
-64.25
-58.64
-47.35
-32.38
-16.20
-0.92
12.10
22.24
29.31
33.16
33.56
30.55
24.73
17.43
10.47
5.47
3.23
3.45
4.99
6.48
6.94
6.14
4.35
2.01
-0.64
-3.66
-7.25
-11.61
-16.83
-22.96
-30.19
-38.70
-48.47
-58.91
-68.61
-75.51
-77.46
-72.99
-61.85
-45.22
-25.47
-5.37
12.57
26.81
36.86
43.12
46.42
47.48
46.78
44.60
41.39
37.95
35.46
35.07
37.33
41.83
47.14
51.29
52.52
49.93
43.81
35.38
26.19
17.39
9.25
1.15
-8.01
-19.31
-33.17
-48.94
-64.95
-78.69
-87.50
-89.26
-83.04
-69.13
-48.99
-24.86
0.63
24.66
44.68
58.66
65.69
66.27
62.22
56.07
50.18
46.06
44.02
43.56
43.98
44.77
45.73
46.72
47.43
47.33
45.96
43.15
39.20
34.57
29.58
24.11
17.55
9.09
-1.91
-15.46
-30.70
-45.85
-58.44
-65.96
-66.56
-59.77
-46.66
-29.51
-11.09
6.30
21.30
33.51
43.00
49.73
53.36
53.48
50.17
44.41
38.00
32.93
30.59
31.22
33.76
36.42
37.40
35.60
31.02
24.43
17.05
9.84
3.23
-2.99
-9.37
-16.56
-24.90
-34.37
-44.46
-54.26
-62.57
-67.99
-69.25
-65.45
-56.46
-43.03
-26.76
-9.68
6.24
19.44
29.00
34.58
36.36
35.02
31.72
28.07
25.84
26.48
30.54
37.37
45.13
51.28
53.36
49.68
39.72
24.22
4.71
-16.82
-38.50
-58.82
-76.84
-92.16
-104.81
-114.93
-122.47
-126.89
-127.22
-122.30
-111.43
-94.77
-73.61
-50.17
-26.90
-5.92
11.50
24.90
34.28
39.83
41.68
40.07
35.69
29.87
24.38
20.88
20.38
22.73
26.67
30.50
32.67
32.58
30.73
28.32
26.62
26.14
26.31
25.59
22.05
14.11
1.19
-15.70
-34.17
-50.70
-61.71
-64.54
-58.26
-44.05
-24.64
-3.56
15.87
31.16
40.95
44.79
42.99
36.57
27.19
16.99
8.24
2.59
0.52
1.22
2.95
3.81
2.51
-1.23
-6.79
-13.12
-19.31
-24.96
-30.15
-35.37
-41.34
-48.79
-58.37
-70.21
-83.65
-96.96
-107.44
-112.18
-109.05
-97.53
-79.14
-56.92
-34.40
-14.51
1.05
11.88
18.40
21.28
21.19
18.84
15.17
11.42
8.85
8.44
10.39
14.12
18.57
22.57
25.36
26.74
27.03
26.65
25.93
24.79
22.73
19.00
12.70
3.24
-9.26
-23.56
-37.27
-47.26
-50.59
-45.52
-32.19
-12.71
9.59
31.12
49.16
62.31
70.46
74.31
74.85
73.02
69.61
65.44
61.37
58.31
56.89
57.21
58.70
60.24
60.66
59.21
55.92
51.55
47.09
43.25
40.01
36.67
32.20
25.86
17.68
8.59
0.28
-5.34
-6.60
-2.71
6.02
18.20
31.70
44.22
53.87
59.50
60.73
57.78
51.15
41.56
29.98
17.74
6.54
-1.99
-6.75
-7.68
-5.68
-2.13
1.76
5.75
10.48
16.97
25.88
36.69
47.69
56.41
60.58
58.80
51.07
38.78
24.43
11.18
2.19
-0.05
5.57
18.35
35.71
53.62
67.47
73.17
68.12
51.85
25.97
-6.27
-40.88
-74.00
-102.48
-124.16
-137.60
-142.05
-137.59
-125.46
-108.43
-90.37
-75.12
-65.04
-60.08
-58.03
-55.89
-51.64
-45.44
-39.39
-36.11
-37.03
-41.15
-45.27
-45.33
-38.08
-22.30
0.90
28.71
57.76
85.12
109.04
129.05
145.76
160.14
172.93
184.15
193.07
198.59
199.86
196.70
189.68
179.62
167.11
152.19
134.41
113.33
88.85
61.30
31.14
-1.54
-37.06
-75.76
-117.12
-159.06
-197.78
-228.58
-247.23
-251.47
-241.85
-221.69
-195.90
-169.53
-146.40
-128.43
-115.83
-107.80
-103.31
-101.41
-101.20
-101.67
-101.50
-99.53
-94.97
-88.01
-79.68
-71.40
-64.49
-59.63
-56.76
-55.31
-54.60
-54.22
-54.25
-55.25
-57.99
-63.20
-71.01
-80.58
-89.91
-96.23
-96.65
-89.24
-73.68
-51.50
-25.66
0.45
23.86
42.62
55.85
63.54
66.11
64.29
59.09
51.78
43.82
36.52
30.74
26.73
24.08
22.16
20.32
18.15
15.55
12.55
9.18
5.34
0.88
-4.34
-10.47
-17.45
-24.97
-32.17
-37.59
-39.37
-35.79
-25.98
-10.42
9.04
29.73
49.04
65.17
77.40
85.76
90.55
91.95
90.09
85.49
79.23
72.95
68.20
65.78
65.36
65.65
65.12
62.84
58.78
53.66
48.28
42.95
37.27
30.46
21.79
11.09
-1.18
-13.98
-25.92
-35.40
-40.87
-41.13
-35.78
-25.57
-12.44
0.94
11.89
18.48
20.00
16.93
10.52
2.36
-6.19
-14.12
-20.78
-25.81
-28.99
-30.29
-29.86
-28.07
-25.52
-22.91
-20.92
-19.95
-20.07
-21.12
-22.99
-25.90
-30.33
-36.58
-44.32
-52.12
-57.80
-59.12
-54.70
-44.78
-31.14
-16.49
-3.47
6.16
11.74
13.54
12.12
8.14
2.15
-5.11
-12.64
-19.27
-23.84
-25.69
-24.85
-22.03
-18.44
-15.33
-13.62
-13.57
-14.76
-16.39
-17.67
-18.38
-18.95
-20.20
-22.79
-26.40
-29.42
-29.26
-23.08
-8.92
13.47
42.26
74.04
104.51
129.56
146.25
153.53
152.66
146.83
140.11
136.09
136.48
140.46
145.07
146.39
140.95
126.54
102.70
70.65
33.18
-5.52
-40.70
-68.17
-85.89
-94.72
-97.81
-98.66
-98.75
-96.43
-87.77
-69.06
-39.28
-1.17
39.67
77.06
106.55
126.31
136.44
137.77
130.94
115.96
92.88
62.55
27.33
-8.90
-41.55
-66.67
-82.17
-88.68
-89.05
-86.89
-84.51
-81.68
-76.23
-66.39
-53.42
-42.61
-41.51
-56.08
-86.60
-126.04
-162.08
-181.81
-176.95
-146.92
-98.33
-41.96
11.59
55.11
85.41
102.38
107.58
103.05
91.32
75.54
59.26
45.88
37.66
35.30
37.90
43.74
50.91
57.71
62.74
64.77
62.83
56.54
46.47
34.05
21.41
10.73
3.72
1.42
3.78
9.83
17.78
25.50
30.99
32.71
29.70
21.53
8.21
-9.77
-31.24
-54.17
-75.79
-93.18
-104.17
-108.02
-105.68
-99.10
-90.36
-80.58
-69.68
-56.59
-40.14
-19.86
3.23
26.76
47.58
62.87
71.28
73.17
70.36
65.34
60.48
57.47
57.30
60.51
67.32
77.86
91.91
108.71
126.71
143.57
156.19
161.08
155.16
136.67
106.06
66.32
22.39
-20.14
-56.66
-84.71
-104.19
-116.55
-123.41
-125.72
-123.56
-116.86
-106.23
-93.48
-81.16
-71.74
-66.58
-65.62
-67.76
-71.58
-76.15
-81.08
-86.23
-91.22
-95.17
-96.94
-95.66
-91.34
-84.97
-78.28
-73.00
-70.29
-70.39
-72.63
-75.91
-79.11
-81.35
-82.11
-81.07
-78.07
-73.12
-66.39
-58.36
-49.70
-41.13
-33.17
-26.02
-19.73
-14.30
-9.91
-6.95
-5.77
-6.43
-8.51
-11.22
-13.58
-14.78
-14.35
-12.20
-8.46
-3.38
2.66
9.14
15.40
20.69
24.30
25.97
25.75
24.12
21.75
19.24
17.04
15.34
14.15
13.31
12.58
11.64
10.18
7.89
4.48
-0.21
-6.18
-13.09
-20.45
-27.58
-34.18
-40.38
-46.87
-54.48
-63.62
-73.75
-83.19
-89.61
-90.59
-84.61
-71.71
-53.72
-33.80
-15.46
-1.76
5.25
4.73
-3.05
-16.77
-34.08
-51.77
-66.29
-74.66
-75.56
-69.90
-60.46
-50.88
-44.06
-41.18
-41.47
-43.24
-44.93
-46.18
-47.76
-51.05
-57.27
-66.91
-79.42
-93.04
-105.22
-112.86
-113.05
-103.67
-84.10
-55.69
-21.42
14.74
48.82
77.71
99.56
113.59
119.80
118.67
111.24
99.30
85.50
72.77
63.54
58.80
57.70
58.09
57.57
54.71
49.61
43.63
38.49
35.15
33.48
32.24
29.81
24.81
16.35
4.36
-10.22
-25.12
-36.81
-41.34
-35.67
-19.19
5.76
34.52
61.90
83.97
99.01
107.39
110.39
109.19
104.50
96.93
87.56
78.06
70.23
65.16
62.79
61.98
61.13
58.92
54.81
49.00
42.22
35.11
27.91
20.45
12.13
2.25
-9.84
-24.48
-41.47
-59.79
-77.42
-91.73
-100.01
-100.50
-92.95
-78.59
-59.42
-37.23
-13.23
11.51
35.31
55.32
68.20
71.55
65.51
53.19
39.69
29.95
26.71
29.63
36.14
42.98
47.89
50.21
50.49
49.50
47.48
43.88
37.86
28.73
16.33
1.00
-16.45
-34.94
-52.92
-68.16
-78.01
-79.98
-72.66
-56.48
-33.90
-8.58
15.64
35.96
51.01
60.56
64.91
64.68
60.82
54.98
49.39
46.23
46.72
50.53
55.87
60.44
62.54
61.79
59.04
55.73
52.88
50.62
48.19
44.40
38.04
28.30
14.87
-1.82
-20.33
-38.09
-51.68
-57.59
-53.33
-38.36
-14.59
14.10
42.98
67.69
85.37
94.95
96.92
92.76
84.37
73.66
62.34
51.81
43.06
36.58
32.39
30.17
29.43
29.64
30.20
30.44
29.66
27.30
23.11
17.30
10.47
3.11
-4.64
-13.04
-22.42
-32.37
-41.35
-46.82
-46.03
-37.28
-20.78
1.13
24.78
46.34
62.96
73.39
77.85
77.53
73.90
68.35
62.01
55.82
50.49
46.44
43.71
41.92
40.36
38.35
35.47
31.74
27.58
23.36
19.24
14.95
9.89
3.45
-4.74
-14.67
-25.86
-37.14
-46.61
-51.76
-50.22
-40.73
-23.89
-2.35
20.10
39.86
54.78
64.48
69.75
71.66
70.84
67.64
62.57
56.78
51.94
49.47
49.74
51.77
53.75
53.96
51.60
47.07
41.45
36.02
31.44
27.55
23.56
18.36
11.03
1.18
-10.85
-23.94
-36.29
-45.79
-50.36
-48.53
-39.88
-25.16
-6.21
14.62
35.01
53.21
68.20
79.63
87.59
92.50
95.11
96.55
98.28
101.76
107.87
116.47
126.28
135.31
141.69
144.35
143.51
140.33
136.38
132.68
129.30
125.29
119.10
109.09
93.98
73.25
47.35
17.85
-12.70
-41.05
-64.13
-79.85
-87.78
-89.16
-86.39
-82.04
-78.16
-76.04
-76.36
-79.65
-86.40
-96.73
-109.96
-124.42
-137.68
-147.42
-152.20
-151.98
-148.01
-142.23
-136.38
-131.47
-127.62
-124.36
-121.19
-118.01
-115.35
-114.13
-115.36
-119.77
-127.46
-137.65
-148.52
-157.36
-161.00
-156.70
-143.27
-121.69
-95.01
-67.41
-42.68
-23.01
-8.64
1.54
8.93
14.26
17.54
18.55
17.60
15.74
14.51
15.06
17.56
21.06
23.99
24.96
23.36
19.51
14.44
9.33
5.13
2.24
0.53
-0.62
-2.09
-4.94
-10.06
-17.77
-27.42
-37.29
-44.85
-47.58
-43.81
-33.45
-17.99
0.00
17.73
32.91
44.16
50.91
53.20
51.48
46.63
40.08
33.68
29.39
28.48
31.19
36.39
42.07
46.10
47.00
44.39
38.95
31.91
24.58
17.82
12.00
6.98
2.29
-2.76
-8.97
-17.03
-27.22
-39.01
-50.91
-60.76
-66.27
-65.88
-59.34
-47.92
-33.98
-20.29
-9.08
-1.60
2.00
2.30
0.16
-3.67
-8.58
-13.90
-18.87
-22.54
-24.24
-23.77
-21.67
-19.08
-17.22
-17.04
-18.83
-22.25
-26.56
-30.99
-34.95
-38.18
-40.83
-43.44
-46.78
-51.70
-58.61
-67.22
-76.26
-83.70
-87.30
-85.38
-77.48
-64.48
-48.38
-31.55
-16.01
-3.06
6.81
13.63
17.65
19.19
18.61
16.56
13.99
12.11
12.04
14.50
19.47
26.09
32.91
38.21
40.66
39.73
35.82
30.11
23.91
18.09
12.72
7.19
0.57
-7.87
-18.31
-30.25
-42.54
-53.57
-61.50
-64.76
-62.36
-54.37
-41.87
-26.64
-10.62
4.68
18.33
29.81
38.59
43.93
44.99
41.46
33.99
24.29
14.82
7.88
4.83
5.62
8.93
12.73
15.13
15.05
12.38
7.84
2.45
-2.91
-7.72
-11.90
-15.62
-19.24
-23.18
-27.82
-33.26
-39.08
-44.17
-46.92
-45.70
-39.46
-28.34
-13.68
2.33
17.34
29.62
38.29
43.40
45.55
45.60
44.43
42.82
41.48
40.95
41.49
42.98
44.86
46.24
46.26
44.40
40.74
35.93
30.86
26.19
22.03
17.83
12.79
6.17
-2.29
-12.42
-23.70
-35.47
-46.91
-56.93
-64.07
-66.84
-64.13
-55.88
-43.30
-28.58
-14.29
-2.43
5.94
10.84
12.98
13.24
12.43
11.16
10.00
9.42
9.69
10.80
12.33
13.65
14.13
13.50
11.86
9.63
7.30
5.31
3.93
3.41
3.93
5.54
7.95
10.39
11.99
12.12
10.95
9.71
10.24
14.41
23.23
36.43
52.51
69.35
84.95
98.00
108.08
115.42
120.62
124.24
126.61
127.89
128.18
127.64
126.68
125.93
126.31
128.78
134.20
143.03
155.02
168.77
181.79
191.05
194.19
190.65
182.25
172.43
164.59
160.22
157.80
153.45
142.56
121.87
90.88
51.91
9.18
-32.71
-70.03
-100.59
-123.88
-140.69
-152.53
-160.87
-166.27
-167.95
-164.00
-152.28
-131.65
-103.04
-69.80
-36.94
-9.55
9.04
18.25
20.36
19.38
19.56
23.84
33.16
46.57
61.99
77.15
90.15
99.74
105.02
105.16
99.29
86.92
68.36
45.34
20.95
-1.20
-18.36
-29.88
-37.70
-45.62
-57.63
-76.32
-102.11
-133.45
-167.82
-202.71
-236.27
-267.37
-295.26
-319.30
-338.82
-353.24
-362.32
-366.18
-365.33
-360.49
-352.29
-341.19
-327.59
-312.09
-295.72
-279.93
-266.15
-255.11
-246.26
-237.73
-226.93
-211.51
-190.31
-163.71
-133.43
-101.79
-70.87
-41.96
-15.58
8.12
28.76
45.44
56.96
62.58
62.85
59.90
56.94
57.01
61.61
70.14
80.13
88.49
92.81
92.21
87.40
80.08
72.32
65.90
61.92
60.36
59.82
57.88
51.88
40.47
25.06
10.24
3.06
11.16
40.43
93.16
166.85
254.31
344.87
426.71
489.65
527.74
540.59
532.80
511.69
484.31
455.12
425.40
394.18
360.04
322.42
281.69
238.57
193.22
145.01
93.00
36.64
-23.93
-88.24
-155.66
-225.59
-296.88
-366.96
-431.33
-484.13
-519.67
-534.52
-528.99
-507.19
-475.64
-441.15
-408.77
-381.02
-358.28
-339.71
-324.13
-310.20
-296.20
-280.01
-259.48
-233.19
-201.21
-165.25
-128.25
-93.34
-62.81
-37.49
-16.78
0.80
16.86
32.44
47.67
61.98
74.32
83.75
89.57
91.24
88.30
80.45
68.12
53.07
38.58
28.70
26.84
34.37
50.01
70.49
91.87
110.95
125.89
135.93
140.82
140.34
134.51
123.95
110.46
96.67
85.41
78.72
77.26
80.15
85.48
90.89
94.37
94.75
91.75
85.85
77.97
69.01
59.64
50.16
40.50
30.25
18.74
5.19
-10.87
-28.98
-47.36
-62.86
-71.62
-70.23
-56.98
-32.74
-0.66
34.53
67.93
95.42
114.27
123.26
122.77
114.75
102.46
89.65
79.49
73.64
71.94
72.89
74.64
75.78
75.67
74.09
70.83
65.53
57.91
48.26
37.50
27.02
17.94
10.64
4.46
-2.00
-10.19
-20.78
-33.05
-44.75
-52.45
-52.86
-43.97
-26.07
-1.66
25.30
50.79
71.84
86.87
95.52
98.10
95.30
88.37
79.33
71.03
66.48
67.96
75.94
88.82
103.31
115.62
122.62
122.72
116.06
104.02
88.54
71.34
53.49
35.26
16.27
-4.11
-26.36
-50.41
-75.39
-99.50
-120.27
-134.85
-140.92
-137.29
-124.49
-104.73
-81.43
-58.32
-38.54
-24.08
-15.71
-13.24
-15.94
-22.62
-31.72
-41.25
-49.00
-53.05
-52.44
-47.57
-40.06
-32.22
-26.16
-23.11
-23.12
-25.27
-28.20
-30.74
-32.34
-33.30
-34.64
-37.73
-43.93
-53.98
-67.45
-82.42
-95.47
-102.35
-99.19
-83.87
-57.08
-22.57
13.83
45.89
68.73
80.14
80.62
72.63
59.24
43.14
26.20
9.60
-5.79
-19.19
-29.94
-37.74
-42.73
-45.41
-46.30
-45.77
-44.09
-41.77
-39.80
-39.62
-42.70
-49.75
-60.31
-72.75
-84.98
-95.40
-103.41
-109.22
-113.20
-115.03
-113.38
-106.34
-92.46
-71.63
-45.43
-16.73
11.42
36.68
58.02
75.55
89.96
101.96
111.89
119.78
125.54
129.18
130.87
130.86
129.35
126.34
121.67
115.13
106.65
96.34
84.49
71.59
58.06
44.04
29.26
13.16
-4.68
-23.94
-43.06
-59.42
-69.96
-72.35
-65.90
-51.98
-33.58
-14.29
2.78
15.68
23.63
26.78
25.74
21.41
14.92
7.65
1.04
-3.74
-6.17
-6.45
-5.41
-4.10
-3.46
-3.97
-5.76
-8.66
-12.45
-17.11
-22.86
-30.12
-39.07
-49.30
-59.35
-66.87
-69.23
-64.40
-51.99
-33.38
-11.39
10.71
30.16
45.26
55.35
60.37
60.57
56.39
48.61
38.66
28.37
19.71
14.04
11.78
12.29
14.26
16.30
17.40
17.18
15.78
13.64
11.13
8.42
5.42
1.85
-2.66
-8.31
-14.80
-21.12
-25.56
-26.10
-21.18
-10.42
5.02
22.78
40.07
54.63
65.19
71.58
74.19
73.58
70.34
65.15
58.99
53.13
48.72
46.33
45.63
45.62
45.06
43.14
39.69
35.18
30.35
25.70
21.29
16.60
10.73
2.76
-7.80
-20.65
-34.40
-46.72
-54.89
-56.70
-51.16
-39.04
-22.65
-5.14
10.49
22.09
28.70
30.44
28.17
23.07
16.39
9.27
2.71
-2.59
-6.27
-8.37
-9.30
-9.65
-9.99
-10.70
-11.91
-13.54
-15.44
-17.56
-20.11
-23.60
-28.81
-36.50
-46.87
-59.15
-71.35
-80.66
-84.27
-80.36
-68.95
-51.89
-32.40
-13.88
1.03
10.95
15.76
16.15
13.11
7.77
1.31
-5.07
-10.19
-13.31
-14.34
-13.95
-13.21
-13.15
-14.39
-16.89
-20.22
-23.89
-27.61
-31.39
-35.46
-40.17
-45.85
-52.71
-60.55
-68.55
-75.10
-78.11
-75.65
-66.64
-51.43
-31.68
-9.79
11.88
31.59
48.23
61.16
69.91
74.25
74.47
71.71
67.91
65.31
65.63
69.34
75.53
82.15
86.97
88.41
86.00
80.47
73.23
65.69
58.76
52.55
46.44
39.30
29.96
17.66
2.67
-13.41
-27.72
-36.81
-37.67
-28.89
-11.20
12.74
39.24
64.90
87.49
106.18
121.11
132.65
140.89
145.66
147.02
145.87
144.27
145.14
151.54
165.52
187.30
214.69
243.36
267.70
282.26
283.16
269.10
241.59
204.28
161.64
117.85
75.88
37.36
3.00
-26.94
-52.46
-73.92
-92.11
-107.92
-121.70
-132.69
-139.13
-139.20
-132.26
-119.78
-105.11
-92.49
-85.53
-86.16
-94.59
-109.81
-130.41
-154.94
-181.78
-209.00
-234.35
-255.72
-271.76
-282.15
-287.29
-287.85
-284.47
-277.76
-268.57
-258.23
-248.44
-240.70
-235.85
-233.68
-233.12
-232.89
-232.18
-231.09
-230.36
-230.73
-231.97
-232.40
-229.01
-218.51
-198.55
-168.68
-130.67
-87.77
-43.66
-1.37
37.25
71.38
100.78
125.25
144.66
159.07
169.14
176.17
181.91
187.85
194.63
201.71
207.51
210.13
207.97
200.46
188.17
172.44
154.84
136.44
117.62
98.20
77.87
56.63
34.98
13.73
-6.38
-24.82
-41.24
-55.02
-64.84
-68.71
-64.61
-51.46
-29.86
-2.22
27.96
57.05
82.23
101.62
114.07
118.70
114.84
102.38
82.22
56.56
28.40
0.76
-24.12
-45.16
-62.05
-74.73
-82.91
-85.95
-83.26
-74.79
-61.37
-44.64
-26.82
-10.14
3.63
13.39
18.88
20.55
19.19
15.58
10.14
2.93
-5.99
-16.05
-25.89
-33.64
-37.68
-37.49
-33.87
-28.63
-23.54
-19.48
-16.26
-13.18
-9.96
-7.31
-6.79
-10.01
-17.61
-28.79
-41.48
-53.26
-62.34
-67.97
-70.42
-70.52
-69.15
-66.92
-64.36
-61.89
-60.07
-59.28
-59.56
-60.42
-61.12
-61.00
-59.83
-58.24
-57.40
-58.80
-63.56
-71.80
-82.01
-90.87
-93.98
-87.39
-69.37
-41.59
-8.79
22.98
48.70
66.25
76.60
82.53
86.71
90.35
93.18
94.29
93.28
90.81
88.16
86.56
86.51
87.64
89.04
89.77
89.17
87.05
83.64
79.29
74.30
68.81
62.65
55.65
47.75
39.28
30.76
22.71
15.09
7.25
-1.87
-13.06
-26.06
-39.12
-49.32
-53.48
-49.51
-37.25
-18.64
3.02
24.37
43.05
58.15
69.86
78.70
84.78
87.77
87.31
83.52
77.46
70.91
65.74
63.23
63.68
66.37
70.03
73.39
75.65
76.71
77.02
77.35
78.39
80.42
83.17
85.91
87.79
88.19
86.87
84.00
79.82
74.48
68.17
61.44
55.55
52.56
54.86
64.28
81.33
105.09
133.78
165.65
199.32
233.50
266.21
294.33
313.95
321.71
316.16
298.50
272.08
240.97
208.53
176.59
145.72
115.94
87.31
59.97
33.73
7.73
-19.37
-48.70
-80.44
-113.59
-146.22
-176.33
