1574758237.00
64.000000
-0.00
-0.00
-0.00
-0.00
-0.00
-0.00
-0.00
-0.00
-0.00
-0.00
0.00
0.01
0.01
-0.00
-0.03
-0.05
-0.05
0.00
0.13
0.36
0.66
1.01
1.37
1.72
2.06
2.40
2.79
3.24
3.80
4.42
5.06
5.66
6.20
6.68
7.15
7.68
8.31
9.14
10.09
11.04
11.88
12.56
13.14
13.76
14.65
15.96
17.91
20.32
22.90
25.38
27.58
29.57
31.68
34.32
37.81
42.54
48.15
54.10
59.83
64.97
69.58
74.14
79.34
85.71
93.76
103.00
112.62
121.73
129.77
136.75
143.30
150.75
157.77
166.64
177.95
191.79
206.97
220.57
228.25
225.36
208.53
176.87
132.76
80.05
23.07
-34.94
-92.44
-149.16
-205.23
-260.37
-313.74
-363.87
-409.83
-450.91
-486.50
-515.74
-537.23
-549.22
-549.96
-538.37
-514.21
-478.67
-433.88
-382.45
-327.02
-269.84
-212.63
-156.66
-102.95
-52.37
-5.90
35.58
71.43
101.35
125.50
144.38
158.69
169.15
176.37
180.75
182.57
182.07
179.51
175.23
169.65
163.18
156.15
148.81
141.30
133.69
126.02
118.33
110.69
103.16
95.80
88.68
81.83
75.25
68.95
62.95
57.25
51.86
46.78
42.03
37.59
33.45
29.61
26.07
22.81
19.83
17.11
14.67
12.48
10.54
8.83
7.35
6.07
4.97
4.05
3.27
2.62
2.09
1.65
1.30
1.01
0.79
0.61
0.48
0.37
0.29
0.24
0.20
0.18
0.17
0.17
0.18
0.20
0.23
0.26
0.30
0.34
0.38
0.42
0.47
0.52
0.57
0.62
0.67
0.73
0.79
0.86
0.93
1.01
1.10
1.20
1.31
1.43
1.57
1.73
1.90
2.10
2.31
2.55
2.81
3.10
3.42
3.78
4.16
4.58
5.03
5.53
6.06
6.63
7.24
7.89
8.59
9.33
10.12
10.96
11.84
12.76
13.73
14.77
15.87
17.03
18.24
19.52
20.80
22.06
23.21
24.17
24.82
25.04
24.71
23.72
22.03
19.60
16.49
12.76
8.57
4.10
-0.44
-4.84
-8.89
-12.40
-15.26
-17.37
-18.71
-19.33
-19.32
-18.83
-17.98
-16.87
-15.60
-14.20
-12.68
-11.06
-9.32
-7.56
-5.80
-4.09
-2.43
-0.79
0.89
2.68
4.61
6.73
8.89
10.99
12.94
14.74
16.49
18.30
20.35
22.77
25.60
28.52
31.26
33.64
35.67
37.52
39.51
41.95
45.06
48.92
52.85
56.30
58.87
60.47
61.37
62.07
63.12
64.86
67.31
69.41
70.18
68.80
64.81
58.21
49.07
37.19
21.44
4.61
-13.10
-32.07
-53.03
-76.80
-103.90
-133.95
-165.17
-194.20
-216.65
-229.18
-229.99
-219.86
-202.01
-180.90
-160.54
-143.35
-129.63
-118.18
-107.81
-97.36
-86.11
-73.68
-59.80
-44.42
-27.86
-10.89
5.35
19.37
30.14
37.32
41.30
43.00
43.61
44.21
45.55
48.00
51.31
54.93
58.25
60.69
62.00
62.23
61.68
60.78
59.84
58.92
57.80
56.08
53.38
49.41
44.13
37.74
30.64
23.33
16.34
10.11
4.93
0.85
-2.34
-5.10
-8.02
-11.66
-16.20
-21.35
-26.32
-30.02
-31.49
-30.19
-26.26
-20.43
-13.73
-7.15
-1.34
3.49
7.35
10.41
12.73
14.36
15.39
15.99
16.50
17.27
18.54
20.30
22.32
24.20
25.64
26.51
26.89
27.01
27.07
27.08
26.87
26.11
24.51
21.94
18.57
14.78
11.05
7.75
5.13
3.17
1.75
0.59
-0.64
-2.29
-4.74
-8.25
-12.78
-17.94
-22.91
-26.65
-28.21
-27.03
-23.10
-17.03
-9.73
-2.24
4.59
10.31
14.76
18.05
20.39
21.91
22.68
22.76
22.20
21.19
19.96
18.83
18.03
17.60
17.41
17.15
16.48
15.20
13.37
11.26
9.31
7.88
7.11
6.78
6.46
5.60
3.75
0.67
-3.61
-8.92
-14.99
-21.47
-28.04
-34.36
-40.15
-45.31
-49.78
-53.68
-57.08
-59.95
-62.04
-62.91
-62.07
-59.18
-54.25
-47.74
-40.46
-33.36
-27.24
-22.56
-19.28
-17.06
-15.35
-13.65
-11.56
-8.82
-5.29
-0.87
4.45
10.56
17.25
24.25
31.33
38.45
45.69
53.20
61.06
69.12
77.01
84.26
90.42
95.22
98.67
100.93
102.32
103.12
103.41
103.09
101.77
99.01
94.47
88.14
80.39
71.95
63.58
55.88
49.01
42.89
37.30
32.05
27.16
22.65
18.57
14.84
11.25
7.56
3.51
-1.15
-6.58
-12.88
-20.01
-27.72
-35.62
-43.28
-50.27
-56.35
-61.41
-65.43
-68.49
-70.70
-72.24
-73.33
-74.25
-75.23
-76.44
-77.97
-79.87
-82.12
-84.55
-86.86
-88.50
-88.96
-87.83
-85.11
-81.22
-76.90
-72.98
-70.06
-68.46
-68.11
-68.71
-69.73
-70.47
-70.17
-68.06
-63.69
-57.06
-48.75
-39.69
-30.89
-23.12
-16.81
-11.98
-8.52
-6.19
-4.81
-4.14
-3.89
-3.76
-3.43
-2.73
-1.64
-0.25
1.34
3.06
4.89
6.84
8.86
10.83
12.56
13.88
14.64
14.76
14.22
13.08
11.43
9.46
7.42
5.55
3.99
2.65
1.21
-0.76
-3.68
-7.65
-12.42
-17.31
-21.36
-23.59
-23.30
-20.28
-14.91
-8.03
-0.67
6.24
12.14
16.83
20.38
22.97
24.70
25.69
26.10
26.23
26.47
27.21
28.65
30.75
33.17
35.53
37.52
38.96
39.84
40.16
39.94
39.17
37.86
36.09
34.00
31.71
29.31
26.84
24.29
21.73
19.28
16.97
14.67
12.02
8.50
3.75
-2.31
-9.15
-15.87
-21.34
-24.58
-25.09
-22.97
-18.79
-13.41
-7.73
-2.48
1.80
4.79
6.35
6.47
5.30
3.13
0.42
-2.32
-4.58
-6.00
-6.44
-5.98
-4.87
-3.42
-1.92
-0.55
0.50
1.12
1.23
0.76
-0.18
-1.40
-2.65
-3.72
-4.56
-5.25
-5.98
-7.00
-8.50
-10.66
-13.62
-17.41
-21.81
-26.25
-29.86
-31.63
-30.70
-26.70
-19.88
-11.04
-1.27
8.36
17.07
24.39
30.13
34.27
36.88
38.18
38.56
38.58
38.92
40.10
42.38
45.66
49.50
53.34
56.62
58.89
59.84
59.23
56.95
53.01
47.59
41.02
33.72
26.15
18.69
11.59
4.96
-1.22
-7.17
-13.24
-19.81
-27.22
-35.49
-44.24
-52.68
-59.66
-64.07
-65.07
-62.44
-56.72
-48.99
-40.57
-32.70
-26.12
-21.06
-17.36
-14.58
-12.36
-10.41
-8.61
-6.89
-5.20
-3.39
-1.31
1.24
4.30
7.75
11.29
14.44
16.79
18.06
18.29
17.78
16.86
15.81
14.66
13.20
11.18
8.42
4.99
1.16
-2.76
-6.61
-10.36
-14.17
-18.20
-22.47
-26.96
-31.60
-36.47
-41.77
-47.60
-53.78
-59.59
-63.89
-65.49
-63.55
-57.98
-49.39
-38.87
-27.62
-16.56
-6.28
2.95
11.10
18.20
24.35
29.73
34.52
38.90
42.96
46.72
50.11
53.06
55.49
57.37
58.62
59.17
58.92
57.78
55.71
52.77
49.07
44.78
40.19
35.57
31.23
27.34
23.95
20.93
17.95
14.70
10.96
6.69
2.06
-2.65
-7.14
-11.26
-15.08
-18.86
-22.95
-27.77
-33.50
-40.01
-46.71
-52.61
-56.54
-57.43
-54.69
-48.43
-39.44
-29.04
-18.66
-9.48
-2.18
3.08
6.59
8.82
10.21
11.14
11.85
12.53
13.35
14.50
16.14
18.26
20.68
23.12
25.29
27.02
28.27
29.09
29.57
29.70
29.38
28.46
26.83
24.50
21.62
18.34
14.81
11.10
7.23
3.26
-0.77
-4.75
-8.57
-12.20
-15.71
-19.36
-23.50
-28.43
-34.22
-40.54
-46.54
-51.06
-52.93
-51.40
-46.46
-38.85
-29.82
-20.71
-12.50
-5.73
-0.42
3.66
6.78
9.21
11.12
12.69
14.08
15.41
16.73
18.08
19.41
20.72
22.01
23.16
24.04
24.44
24.24
23.46
22.28
20.93
19.53
18.08
16.41
14.34
11.78
8.81
5.62
2.39
-0.77
-3.81
-6.73
-9.50
-12.16
-14.79
-17.68
-21.16
-25.51
-30.72
-36.35
-41.49
-44.95
-45.66
-42.97
-36.95
-28.42
-18.66
-9.02
-0.51
6.42
11.85
16.15
19.68
22.60
24.93
26.62
27.75
28.59
29.46
30.62
32.08
33.64
35.01
35.88
36.15
35.84
35.11
34.08
32.80
31.23
29.31
26.98
24.26
21.22
17.89
14.36
10.75
7.19
3.95
1.22
-0.92
-2.59
-4.23
-6.41
-9.73
-14.53
-20.70
-27.61
-34.21
-39.22
-41.57
-40.68
-36.65
-30.25
-22.65
-14.99
-8.15
-2.48
2.07
5.74
8.81
11.40
13.54
15.28
16.75
18.20
19.82
21.71
23.79
25.77
27.40
28.51
29.09
29.31
29.33
29.26
29.11
28.82
28.31
27.60
26.74
25.82
24.92
24.00
22.98
21.66
19.77
16.99
12.98
7.44
0.17
-8.82
-19.15
-30.01
-40.32
-48.95
-55.02
-58.24
-58.88
-57.72
-55.69
-53.54
-51.76
-50.43
-49.40
-48.37
-47.04
-45.20
-42.70
-39.47
-35.47
-30.70
-25.15
-18.87
-12.03
-5.05
1.59
7.43
12.16
15.79
18.62
20.97
23.12
25.04
26.44
26.95
26.22
24.12
20.82
16.59
11.75
6.52
0.98
-4.86
-11.02
-17.55
-24.46
-31.74
-39.21
-46.50
-52.97
-57.83
-60.31
-59.92
-56.54
-50.56
-42.72
-33.91
-25.08
-16.95
-10.01
-4.49
-0.30
2.73
4.84
6.30
7.34
8.19
9.08
10.18
11.55
13.11
14.69
16.14
17.40
18.54
19.72
21.01
22.36
23.51
24.06
23.65
22.06
19.34
15.86
12.08
8.43
5.10
1.96
-1.35
-5.23
-9.97
-15.48
-21.45
-27.26
-32.15
-35.45
-36.56
-35.10
-31.02
-24.64
-16.63
-7.94
0.41
7.55
12.99
16.65
18.77
19.76
20.07
20.04
20.00
20.18
20.81
22.02
23.75
25.78
27.81
29.59
30.98
32.04
32.79
33.26
33.33
32.81
31.61
29.68
27.07
23.91
20.25
16.17
11.73
7.01
2.13
-2.94
-8.30
-14.04
-20.06
-25.89
-30.74
-33.67
-33.95
-31.41
-26.52
-20.23
-13.66
-7.66
-2.72
1.15
4.15
6.51
8.32
9.59
10.37
10.86
11.47
12.62
14.60
17.42
20.76
24.11
26.95
28.93
29.97
30.17
29.73
28.79
27.35
25.26
22.31
18.30
13.21
7.19
0.55
-6.33
-13.23
-20.05
-26.80
-33.51
-40.08
-46.25
-51.71
-56.01
-58.82
-59.74
-58.48
-54.83
-48.80
-40.77
-31.44
-21.79
-12.82
-5.35
0.21
3.83
5.76
6.44
6.30
5.76
5.15
4.76
4.89
5.73
7.39
9.81
12.77
15.97
19.07
21.70
23.65
24.80
25.21
25.15
24.91
24.74
24.66
24.41
23.63
21.99
19.34
15.82
11.73
7.38
3.00
-1.27
-5.34
-9.12
-12.58
-15.82
-19.10
-22.71
-26.85
-31.41
-35.86
-39.30
-40.77
-39.48
-35.18
-28.25
-19.57
-10.36
-1.70
5.63
11.33
15.59
18.85
21.53
23.84
25.68
26.88
27.45
27.68
28.10
29.20
31.09
33.40
35.51
36.74
36.95
36.36
35.51
34.80
34.07
32.63
29.43
23.80
15.83
6.48
-2.74
-10.55
-16.40
-20.68
-24.53
-29.00
-34.68
-41.40
-48.39
-54.82
-60.05
-63.79
-65.88
-66.10
-64.20
-60.00
-53.74
-46.01
-37.71
-29.76
-22.71
-16.86
-12.03
-7.86
-4.05
-0.35
3.33
7.05
10.89
14.96
19.34
23.95
28.55
32.82
36.52
39.56
42.01
44.03
45.72
47.10
48.21
49.09
49.76
50.17
50.03
48.93
46.63
43.17
38.93
34.45
29.96
25.19
19.48
12.08
2.82
-7.62
-17.76
-25.70
-29.90
-29.74
-25.71
-19.20
-11.96
-5.53
-0.94
1.27
1.04
-1.49
-5.96
-11.53
-17.05
-21.11
-22.50
-20.74
-16.32
-10.54
-4.98
-0.79
1.68
2.88
3.51
4.11
4.70
4.83
4.08
2.39
0.47
-0.43
0.92
5.16
11.83
19.45
25.96
29.54
29.21
24.99
17.74
8.46
-1.92
-12.81
-23.80
-34.09
-42.49
-47.56
-48.09
-43.84
-35.67
-25.43
-15.27
-6.88
-1.00
2.65
4.87
6.43
7.63
8.21
7.64
5.45
1.58
-3.46
-8.74
-13.07
-15.40
-15.02
-11.81
-6.16
1.01
8.51
15.15
19.84
21.78
20.50
15.82
7.99
-2.31
-13.93
-25.38
-35.14
-42.07
-45.63
-46.08
-44.18
-40.91
-37.18
-33.74
-31.11
-29.77
-30.13
-32.24
-35.79
-39.76
-42.73
-43.26
-40.45
-34.42
-26.27
-17.69
-10.28
-4.89
-1.49
0.58
2.13
3.45
4.35
4.24
2.81
0.40
-2.04
-3.23
-2.30
0.79
5.21
9.67
13.03
14.84
15.41
15.51
15.94
16.96
18.22
19.04
18.77
17.31
15.17
13.19
12.08
11.82
11.57
10.07
6.22
-0.21
-8.43
-16.91
-24.00
-28.49
-29.97
-28.86
-25.98
-22.35
-19.02
-16.88
-16.80
-19.40
-24.85
-32.62
-41.26
-48.76
-53.03
-52.86
-48.31
-40.81
-32.61
-25.62
-20.69
-17.33
-14.05
-9.42
-2.76
5.45
13.86
21.03
26.21
29.56
31.84
33.91
36.04
37.91
38.88
38.29
36.16
32.98
29.64
26.94
25.11
23.85
22.38
19.98
16.37
11.88
7.30
3.37
0.39
-2.04
-4.90
-9.02
-14.57
-20.71
-25.58
-27.11
-23.82
-15.68
-4.33
7.47
16.92
22.46
24.23
24.05
24.35
27.08
32.97
41.35
50.93
60.37
68.65
75.06
78.76
78.73
74.25
65.47
53.78
41.55
31.21
24.33
21.10
20.55
21.08
21.33
20.59
18.74
16.10
13.03
9.79
6.53
3.30
0.11
-3.14
-6.37
-9.61
-12.88
-16.31
-20.13
-24.53
-29.55
-34.71
-39.05
-41.26
-40.17
-35.30
-27.18
-17.23
-7.27
1.20
7.56
12.07
15.62
19.06
22.82
26.74
30.34
33.11
34.89
35.88
36.42
36.76
36.73
35.96
34.09
31.22
28.10
25.84
25.45
27.16
30.19
33.01
33.91
31.93
27.20
20.83
14.39
9.10
5.33
2.56
-0.16
-3.61
-7.91
-12.35
-15.68
-16.53
-14.01
-8.05
0.65
10.74
20.82
29.74
36.76
41.59
44.13
44.37
42.42
38.63
33.68
28.53
24.17
21.24
19.81
19.38
19.02
17.97
15.86
12.92
9.83
7.22
5.35
3.89
2.05
-1.04
-5.96
-12.72
-20.81
-29.34
-37.39
-44.38
-50.07
-54.65
-58.46
-61.78
-64.77
-67.31
-69.16
-70.06
-69.67
-67.68
-63.72
-57.50
-48.93
-38.47
-27.20
-16.63
-8.30
-3.16
-1.16
-1.33
-2.12
-2.02
-0.09
3.84
9.39
15.82
22.32
28.08
32.24
33.99
32.75
28.41
21.67
13.90
6.93
2.44
1.33
3.37
7.23
10.86
12.21
9.98
4.01
-4.79
-14.75
-24.21
-31.90
-37.19
-40.07
-40.79
-39.73
-37.16
-33.28
-28.42
-23.05
-17.83
-13.43
-10.18
-7.96
-6.02
-3.37
0.92
7.25
15.24
23.87
31.76
37.77
41.35
42.66
42.37
41.26
39.98
38.75
37.56
36.34
34.97
33.51
31.89
29.89
27.08
22.93
17.20
10.04
2.04
-5.97
-13.34
-19.80
-25.57
-31.14
-36.95
-42.98
-48.79
-53.56
-56.36
-56.48
-53.60
-47.84
-39.75
-30.09
-19.71
-9.50
-0.27
7.28
12.74
16.17
18.19
19.82
22.05
25.46
29.84
34.26
37.49
38.32
36.15
31.11
23.96
15.95
8.43
2.59
-0.88
-2.00
-1.56
-0.84
-1.10
-3.08
-6.62
-10.90
-14.96
-18.22
-20.83
-23.53
-27.03
-31.81
-37.74
-44.33
-50.91
-56.59
-60.38
-61.09
-57.67
-49.67
-37.64
-23.27
-8.92
3.08
11.25
15.23
15.74
14.00
11.20
8.26
5.74
4.08
3.64
4.60
6.92
10.13
13.43
15.90
16.77
15.80
13.27
9.87
6.45
3.66
1.77
0.76
0.35
0.28
0.35
0.37
0.13
-0.60
-1.98
-4.06
-6.72
-9.82
-13.14
-16.51
-19.71
-22.29
-23.75
-23.52
-21.32
-17.26
-11.88
-5.89
-0.01
5.22
9.47
12.50
14.13
14.38
13.49
12.11
11.09
11.31
13.26
16.82
21.30
25.66
28.98
30.79
31.08
30.33
29.12
27.86
26.84
26.04
25.46
25.08
24.91
24.88
24.66
23.74
21.65
18.20
13.71
8.93
4.73
1.63
-0.39
-1.88
-3.55
-5.77
-8.40
-10.67
-11.68
-10.79
-7.92
-3.70
0.87
4.78
7.44
8.94
9.82
10.87
12.72
15.51
19.03
22.72
26.05
28.60
29.99
29.87
27.85
23.71
17.66
10.61
4.05
-0.30
-1.13
1.86
7.87
15.13
21.35
24.52
23.24
16.90
5.81
-9.15
-26.52
-44.51
-61.09
-74.34
-82.87
-86.27
-85.23
-81.35
-76.68
-73.00
-71.27
-71.50
-72.74
-73.56
-72.40
-68.11
-60.38
-49.74
-37.53
-25.29
-14.29
-5.15
2.28
8.44
13.79
18.47
22.19
24.74
26.05
26.48
26.63
26.99
27.74
28.66
29.29
29.22
28.33
26.82
25.12
23.67
22.75
22.39
22.49
22.82
23.31
23.91
24.62
25.37
25.82
25.53
24.01
21.06
16.91
12.20
7.76
4.24
1.89
0.57
-0.16
-0.64
-0.94
-0.90
-0.30
0.92
2.48
3.92
4.83
5.10
5.01
5.18
6.11
8.18
11.28
14.90
18.41
21.14
22.75
23.21
22.73
21.68
20.32
18.76
16.99
14.99
12.89
10.93
9.40
8.52
8.22
8.23
8.08
7.40
6.05
4.21
2.23
0.43
-1.14
-2.75
-4.81
-7.66
-11.34
-15.47
-19.48
-22.70
-24.67
-25.16
-24.08
-21.51
-17.60
-12.60
-6.97
-1.26
3.89
7.94
10.54
11.69
11.62
10.73
9.46
8.09
6.82
5.69
4.75
4.04
3.65
3.67
4.13
4.97
6.05
7.13
7.93
8.25
7.83
6.55
4.37
1.44
-1.96
-5.51
-8.89
-11.88
-14.38
-16.46
-18.30
-20.18
-22.36
-24.95
-27.86
-30.62
-32.63
-33.26
-32.14
-29.35
-25.40
-21.11
-17.34
-14.63
-13.13
-12.51
-12.14
-11.42
-9.97
-7.77
-5.13
-2.47
-0.19
1.49
2.56
3.10
3.22
3.00
2.41
1.37
-0.17
-2.29
-4.93
-8.06
-11.62
-15.50
-19.60
-23.75
-27.71
-31.19
-33.90
-35.66
-36.49
-36.62
-36.52
-36.77
-37.78
-39.65
-41.97
-43.93
-44.51
-42.91
-38.75
-32.31
-24.30
-15.68
-7.36
0.05
6.18
10.89
14.14
15.97
16.62
16.47
16.11
16.18
17.09
18.97
21.54
24.28
26.62
28.15
28.62
28.01
26.29
23.42
19.31
13.96
7.54
0.53
-6.37
-12.35
-16.79
-19.41
-20.35
-20.20
-19.69
-19.50
-20.08
-21.54
-23.69
-26.14
-28.36
-29.82
-30.06
-28.79
-26.00
-21.96
-17.11
-11.95
-6.79
-1.79
3.06
7.79
12.29
16.38
19.85
22.58
24.63
26.15
27.26
28.02
28.42
28.46
28.16
27.55
26.66
25.49
23.98
22.13
19.97
17.60
15.14
12.62
10.04
7.39
4.69
2.04
-0.43
-2.66
-4.57
-6.19
-7.48
-8.31
-8.51
-7.79
-6.02
-3.27
0.15
3.74
6.96
9.42
10.91
11.49
11.37
10.90
10.44
10.31
10.68
11.64
13.09
14.84
16.68
18.38
19.86
21.11
22.23
23.28
24.27
25.06
25.35
24.74
22.89
19.67
15.21
9.97
4.53
-0.53
-4.88
-8.48
-11.58
-14.64
-18.13
-22.33
-27.22
-32.45
-37.36
-41.14
-43.06
-42.68
-40.09
-35.83
-30.80
-26.01
-22.26
-20.01
-19.31
-19.85
-21.10
-22.37
-22.89
-21.96
-18.94
-13.53
-5.88
3.40
13.24
22.44
29.98
35.13
37.65
37.64
35.43
31.48
26.31
20.52
14.88
10.17
7.12
6.14
7.22
9.83
13.19
16.39
18.73
19.61
18.63
15.54
10.19
2.83
-5.81
-14.51
-21.73
-26.17
-27.16
-24.83
-20.13
-14.35
-8.68
-3.88
-0.15
2.77
5.34
8.06
11.17
14.59
17.91
20.48
21.63
20.90
18.22
14.07
9.43
5.47
3.39
3.92
7.09
12.23
18.05
23.12
26.30
27.03
25.35
21.75
16.82
11.10
5.06
-0.88
-6.24
-10.59
-13.68
-15.61
-16.77
-17.69
-18.83
-20.38
-22.22
-24.04
-25.47
-26.14
-25.77
-24.14
-21.21
-17.16
-12.37
-7.42
-2.85
0.93
3.71
5.52
6.44
6.60
6.15
5.31
4.40
3.87
4.03
5.07
6.85
9.00
11.06
12.58
13.32
13.26
12.47
11.10
9.19
6.70
3.57
-0.18
-4.33
-8.42
-11.89
-14.30
-15.41
-15.43
-14.85
-14.37
-14.67
-16.27
-19.36
-23.73
-28.71
-33.33
-36.56
-37.55
-36.06
-32.39
-27.35
-21.85
-16.59
-11.93
-7.95
-4.62
-2.00
-0.26
0.50
0.31
-0.44
-1.20
-1.34
-0.42
1.70
4.81
8.55
12.43
16.02
19.01
21.14
22.25
22.23
21.06
18.85
15.90
12.56
9.23
6.10
3.15
0.09
-3.57
-8.37
-14.83
-23.09
-32.85
-43.27
-53.02
-60.61
-64.76
-64.76
-60.75
-53.53
-44.35
-34.55
-25.18
-16.96
-10.31
-5.46
-2.56
-1.66
-2.69
-5.36
-9.20
-13.57
-17.85
-21.46
-23.92
-24.84
-23.82
-20.51
-14.72
-6.66
3.05
13.33
22.94
30.72
35.92
38.27
38.00
35.70
32.13
28.15
24.51
21.73
20.02
19.20
18.73
17.93
16.17
13.02
8.56
3.22
-2.23
-6.89
-10.04
-11.23
-10.42
-7.98
-4.49
-0.55
3.44
7.31
11.08
14.82
18.54
22.08
25.21
27.78
29.70
31.00
31.73
31.81
31.01
28.99
25.54
20.92
15.84
11.42
8.68
8.11
9.38
11.44
13.00
13.14
11.67
9.19
6.64
4.74
3.54
2.36
-0.01
-4.51
-11.67
-21.14
-31.85
-42.23
-50.49
-54.70
-53.12
-44.62
-29.36
-9.32
11.97
30.32
42.40
47.10
45.72
41.25
36.77
34.09
33.30
33.29
32.86
31.62
30.12
29.31
29.78
31.24
32.79
33.43
32.62
30.56
27.92
25.64
24.21
23.51
22.85
21.33
18.27
13.58
7.85
2.05
-2.88
-6.55
-9.20
-11.61
-14.68
-18.94
-24.47
-30.89
-37.59
-43.91
-49.22
-52.87
-54.10
-52.26
-47.01
-38.58
-27.90
-16.40
-5.65
3.17
9.56
13.76
16.47
18.40
20.00
21.37
22.30
22.71
22.68
22.56
22.86
23.88
25.58
27.53
29.12
29.84
29.55
28.53
27.35
26.53
26.20
26.09
25.56
23.94
20.95
16.74
11.99
7.40
3.44
0.12
-3.01
-6.47
-10.65
-15.68
-21.41
-27.56
-33.75
-39.49
-44.18
-47.03
-47.25
-44.36
-38.31
-29.68
-19.49
-8.98
0.71
8.85
15.26
20.16
23.93
26.87
29.03
30.28
30.53
29.99
29.21
28.87
29.48
31.09
33.20
34.97
35.65
34.89
32.85
30.03
26.96
23.91
20.84
17.48
13.44
8.56
2.87
-3.32
-9.44
-14.91
-19.29
-22.52
-24.85
-26.82
-29.04
-31.90
-35.43
-39.25
-42.66
-44.86
-45.11
-43.00
-38.38
-31.43
-22.74
-13.05
-3.36
5.35
12.34
17.29
20.41
22.34
23.80
25.28
26.90
28.35
29.09
28.81
27.51
25.60
23.68
22.20
21.35
20.91
20.45
19.53
17.84
15.27
11.79
7.47
2.40
-3.30
-9.30
-15.22
-20.63
-25.27
-29.21
-32.78
-36.46
-40.55
-44.90
-48.75
-50.97
-50.45
-46.57
-39.55
-30.36
-20.36
-10.89
-2.66
4.18
9.95
15.06
19.63
23.47
26.21
27.58
27.65
26.77
25.40
23.95
22.63
21.51
20.61
20.02
19.83
20.11
20.68
21.19
21.13
19.97
17.33
13.06
7.39
0.79
-6.15
-12.82
-18.91
-24.44
-29.71
-35.23
-41.32
-47.98
-54.77
-60.88
-65.34
-67.30
-66.21
-62.03
-55.13
-46.23
-36.20
-25.93
-16.12
-7.31
0.18
6.27
11.12
15.13
18.78
22.55
26.72
31.26
35.90
40.27
44.15
47.53
50.54
53.38
56.08
58.47
60.35
61.56
62.26
62.86
63.92
65.82
68.63
72.02
75.48
78.72
81.84
85.48
90.55
97.87
107.89
120.58
135.40
151.67
168.59
185.46
201.61
216.37
229.14
239.31
246.36
249.78
249.05
243.68
233.34
217.97
198.08
174.75
149.54
124.15
100.12
78.44
59.49
43.03
28.46
15.02
1.92
-11.43
-25.32
-39.50
-53.28
-65.81
-76.53
-85.73
-94.79
-105.84
-121.06
-141.81
-168.03
-198.35
-230.60
-262.54
-292.45
-319.06
-341.18
-357.46
-366.43
-367.00
-359.07
-343.79
-323.33
-300.08
-275.89
-251.55
-227.03
-201.95
-176.24
-150.41
-125.29
-101.68
-79.94
-59.98
-41.57
-24.65
-9.51
3.33
13.48
21.01
26.53
31.07
35.75
41.37
48.12
55.61
63.01
69.45
74.41
77.87
80.30
82.36
84.55
86.90
89.00
90.14
89.76
87.72
84.40
80.72
77.67
76.08
76.23
77.77
79.62
80.23
77.88
71.16
59.53
43.76
25.96
9.09
-3.89
-11.05
-12.05
-8.13
-1.42
5.87
12.26
17.14
20.66
23.29
25.34
26.64
26.51
23.84
17.62
7.52
-5.55
-19.30
-30.69
-36.91
-36.65
-30.69
-21.50
-12.06
-4.50
0.67
4.43
8.26
13.12
18.77
24.05
27.59
28.62
27.29
24.55
21.50
18.85
16.70
14.60
12.10
8.98
5.51
2.19
-0.45
-1.98
-2.02
-0.03
4.67
12.85
24.81
40.09
57.22
74.15
88.85
99.88
106.81
109.87
109.45
105.66
98.08
86.10
69.42
48.48
24.52
-0.56
-24.78
-46.44
-64.43
-78.15
-87.39
-92.12
-92.41
-88.60
-81.47
-72.32
-62.77
-54.43
-48.32
-44.54
-42.21
-39.73
-35.47
-28.48
-18.93
-8.28
1.00
6.11
4.63
-4.83
-22.44
-47.26
-77.59
-111.28
-145.87
-178.54
-206.33
-226.37
-236.65
-236.62
-227.51
-212.22
-194.58
-178.29
-166.01
-158.71
-155.75
-155.29
-154.81
-151.86
-144.41
-131.25
-112.31
-88.61
-62.22
-35.82
-11.95
7.55
22.09
32.25
39.43
45.30
51.07
57.25
63.62
69.44
73.93
76.46
76.85
75.30
72.30
68.40
63.99
59.30
54.28
48.77
42.58
35.63
27.95
19.63
10.74
1.32
-8.54
-18.45
-27.78
-35.42
-40.15
-41.00
-37.65
-30.76
-21.81
-12.57
-4.51
1.80
6.63
10.84
15.12
19.74
24.35
28.19
30.89
32.45
33.42
34.65
36.66
39.50
42.65
45.31
46.86
47.17
46.63
45.89
45.48
45.48
45.37
44.47
42.13
38.34
33.59
28.69
24.37
20.78
17.51
13.77
8.89
2.66
-4.52
-11.73
-18.08
-22.81
-25.58
-26.56
-25.97
-24.13
-21.13
-16.96
-11.73
-5.84
0.04
5.05
8.57
10.46
11.16
11.50
12.35
14.24
17.17
20.70
24.05
26.62
28.01
28.19
27.46
26.12
24.33
22.04
19.06
15.38
11.19
6.92
3.05
-0.20
-2.93
-5.63
-8.69
-12.37
-16.45
-20.46
-23.94
-26.85
-29.66
-33.16
-38.07
-44.53
-51.97
-59.26
-65.03
-68.23
-68.48
-65.96
-61.41
-55.54
-48.90
-41.74
-34.19
-26.52
-19.32
-13.23
-8.69
-5.48
-2.77
0.57
5.37
11.84
19.36
26.91
33.74
39.65
45.20
51.27
58.37
66.18
73.54
78.90
81.10
79.91
76.16
71.22
66.69
63.84
63.41
65.92
71.14
78.38
86.00
91.68
93.04
88.38
77.42
61.66
44.08
28.47
18.44
16.57
23.66
38.77
59.34
82.00
103.73
122.34
136.92
147.58
154.66
158.24
157.99
153.55
145.25
134.31
122.70
112.33
104.40
98.93
94.75
90.34
84.36
76.49
67.30
57.80
48.74
39.99
30.69
19.73
6.67
-7.93
-22.61
-35.73
-46.23
-54.07
-60.08
-65.71
-72.00
-79.44
-87.84
-96.45
-104.58
-111.65
-117.32
-121.38
-123.44
-123.03
-119.63
-113.09
-103.75
-92.59
-81.15
-70.88
-62.87
-57.31
-53.67
-51.09
-48.86
-47.03
-46.16
-46.92
-49.35
-52.34
-54.14
-52.96
-48.24
-40.95
-33.23
-27.47
-24.89
-25.20
-26.79
-27.76
-26.98
-24.31
-20.28
-15.25
-8.83
-0.10
11.75
26.56
43.16
59.93
75.64
90.33
104.92
120.80
138.48
157.06
174.29
186.94
191.90
187.25
173.09
151.99
128.35
107.04
91.40
81.96
76.07
68.95
55.89
33.96
2.78
-36.44
-82.60
-135.61
-195.80
-262.17
-330.73
-394.63
-446.15
-479.89
-494.83
-494.62
-485.52
-473.25
-461.04
-448.79
-434.66
-416.91
-395.29
-371.21
-346.87
-323.97
-302.97
-283.12
-262.99
-241.20
-217.30
-192.01
-166.94
-144.18
-125.16
-110.21
-98.38
-87.78
-76.52
-63.55
-49.15
-34.85
-22.78
-14.76
-11.51
-12.38
-15.52
-18.70
-20.25
-19.40
-16.32
-11.53
-5.14
3.24
13.98
26.34
37.90
44.93
44.19
34.76
19.06
2.27
-10.10
-14.54
-11.06
-2.85
5.80
11.79
14.45
15.21
16.02
17.85
20.13
21.55
21.36
20.33
20.78
25.51
36.54
54.19
76.98
102.50
128.46
153.67
178.36
203.80
231.64
263.14
298.53
336.61
374.80
409.46
436.68
453.34
457.91
450.85
434.42
411.61
385.36
357.82
330.29
303.71
278.85
256.44
236.72
219.27
203.00
186.74
169.80
152.28
134.98
118.79
104.08
90.77
78.27
66.22
54.62
43.83
34.31
26.12
18.92
12.23
5.83
0.15
-4.07
-6.17
-6.11
-4.65
-3.03
-2.54
-3.70
-6.20
-9.10
-11.31
-12.28
-12.20
-11.85
-12.02
-12.99
-14.27
-14.96
-14.30
-12.13
-9.16
-6.76
-6.07
-7.71
-11.23
-15.46
-19.12
-21.35
-22.31
-22.85
-24.12
-26.75
-30.54
-34.63
-37.86
-39.47
-39.47
-38.43
-37.44
-37.14
-37.61
-38.38
-38.59
-37.81
-36.14
-34.38
-33.44
-33.83
-35.37
-37.16
-38.26
-38.06
-36.77
-35.35
-34.85
-36.05
-38.99
-43.06
-47.49
-51.74
-55.78
-59.98
-64.71
-69.94
-75.16
-79.60
-82.59
-83.99
-84.33
-84.48
-85.66
-88.57
-93.41
-99.63
-105.98
-111.01
-113.30
-111.97
-106.74
-97.91
-86.18
-72.37
-57.39
-42.10
-27.35
-14.16
-3.23
4.99
10.64
14.44
17.27
19.88
22.47
24.78
26.47
27.45
28.16
29.17
30.98
33.49
36.03
37.77
37.96
36.62
34.31
31.87
30.07
29.11
28.65
28.06
26.83
24.85
22.44
20.07
17.90
15.73
12.89
8.40
1.71
-7.26
-17.58
-27.64
-35.52
-39.62
-39.27
-34.82
-27.53
-18.96
-10.33
-2.37
4.95
11.86
18.44
24.51
29.48
32.93
34.88
35.86
36.77
38.30
40.54
43.04
45.10
46.37
47.09
47.96
49.62
52.29
55.49
58.24
59.78
59.79
58.70
57.27
56.05
55.13
53.92
51.71
48.07
43.43
38.84
35.46
33.97
33.98
34.14
32.88
28.93
22.35
14.14
5.75
-1.74
-8.20
-14.17
-20.25
-26.43
-31.92
-35.71
-37.12
-36.16
-32.98
-27.39
-19.08
-8.09
4.05
14.18
18.45
13.94
0.37
-19.72
-42.09
-62.73
-79.29
-91.42
-99.82
-104.97
-106.58
-103.90
-96.66
-85.87
-73.43
-61.47
-51.29
-42.90
-35.36
-27.40
-18.24
-7.82
3.26
13.96
23.18
29.66
32.23
29.97
22.38
10.23
-4.55
-18.96
-29.73
-34.53
-32.70
-25.55
-15.66
-5.78
2.29
8.19
12.74
17.17
22.34
28.31
34.59
40.46
45.79
50.99
56.71
63.50
71.12
78.68
84.84
88.57
89.64
88.78
87.38
86.74
87.52
89.31
90.68
90.06
86.27
79.31
70.33
61.02
52.87
46.31
40.66
34.51
26.49
15.97
3.12
-11.12
-25.59
-39.18
-50.70
-59.12
-63.29
-62.43
-56.61
-46.80
-35.03
-23.67
-14.59
-8.62
-5.36
-3.63
-2.17
-0.20
2.42
5.35
8.13
10.64
13.04
15.72
18.92
22.48
25.84
28.15
28.77
27.43
24.51
20.78
17.02
13.80
11.19
8.82
6.31
3.30
-0.11
-3.56
-6.69
-9.36
-12.01
-15.50
-20.75
-28.19
-37.19
-46.06
-52.40
-54.08
-50.02
-40.67
-28.00
-14.44
-2.18
7.60
14.93
20.43
24.74
28.10
30.31
31.16
30.78
29.67
28.53
27.86
27.70
27.70
27.41
26.49
25.01
23.29
21.67
20.34
19.08
17.45
14.91
11.18
6.43
1.18
-3.82
-8.02
-11.24
-13.79
-16.53
-20.23
-25.52
-32.43
-40.21
-47.68
-53.39
-56.14
-55.33
-51.01
-43.81
-34.68
-24.63
-14.47
-4.86
3.66
10.69
15.87
19.22
21.07
22.05
22.96
24.31
26.25
28.56
30.89
33.04
35.03
37.09
39.28
41.41
43.04
43.51
42.54
40.15
36.86
33.47
30.66
28.78
27.64
26.76
25.61
23.92
21.79
19.54
17.54
15.87
14.15
11.88
8.58
4.40
0.11
-3.15
-4.27
-2.89
0.45
4.57
8.22
10.71
12.08
13.00
14.17
15.92
18.05
19.85
20.79
20.69
19.92
19.21
19.25
20.29
21.94
23.46
24.11
23.62
22.26
20.67
19.57
19.22
19.30
19.19
18.19
16.07
13.13
10.01
7.33
5.26
3.45
1.25
-1.87
-5.90
-10.35
-14.46
-17.74
-20.25
-22.51
-25.32
-28.93
-33.00
-36.55
-38.42
-37.96
-35.28
-31.30
-27.26
-24.13
-22.26
-21.28
-20.53
-19.45
-17.86
-16.06
-14.46
-13.38
-12.63
-11.71
-10.06
-7.45
-4.23
-1.23
0.64
0.94
-0.06
-1.56
-2.55
-2.47
-1.42
-0.01
0.79
0.54
-0.74
-2.49
-3.92
-4.59
-4.64
-4.79
-5.92
-8.57
-12.60
-17.21
-21.26
-23.81
-24.40
-23.28
-21.01
-18.29
-15.52
-12.78
-9.99
-7.08
-4.26
-1.95
-0.69
-0.71
-1.78
-3.24
-4.21
-4.07
-2.72
-0.55
1.62
3.23
4.05
4.34
4.67
5.39
6.50
7.59
8.07
7.56
6.15
4.29
2.53
1.27
0.50
-0.23
-1.36
-3.19
-5.41
-7.32
-8.21
-7.71
-6.27
-4.90
-4.76
-6.44
-9.60
-13.08
-15.29
-14.99
-11.63
-5.44
2.77
12.12
21.76
30.94
38.97
44.99
48.17
47.86
43.96
37.02
28.19
18.88
10.22
2.81
-3.44
-9.30
-15.48
-22.50
-30.06
-37.19
-42.64
-45.47
-45.62
-43.97
-41.97
-40.94
-41.43
-43.16
-45.22
-46.74
-47.31
-47.06
-46.53
-46.06
-45.77
-45.51
-45.15
-44.91
-45.27
-46.75
-49.39
-52.58
-55.12
-55.69
-53.47
-48.47
-41.52
-34.03
-27.30
-22.19
-18.89
-17.04
-16.07
-15.51
-15.21
-15.30
-15.92
-17.03
-18.30
-19.24
-19.45
-18.89
-17.91
-17.08
-17.00
-17.88
-19.64
-21.91
-24.28
-26.65
-29.16
-32.17
-35.93
-40.29
-44.73
-48.42
-50.61
-50.88
-49.39
-46.90
-44.48
-43.29
-43.96
-46.42
-49.76
-52.53
-53.26
-50.94
-45.36
-37.03
-26.92
-16.08
-5.36
4.59
13.25
20.20
24.98
27.48
27.89
26.82
25.14
23.57
22.59
22.22
22.25
22.40
22.53
22.64
22.79
23.02
23.28
23.34
22.97
21.93
20.13
17.62
14.57
11.20
7.66
3.98
0.15
-3.82
-7.76
-11.50
-14.94
-18.35
-22.31
-27.40
-33.96
-41.40
-48.27
-52.61
-52.58
-47.35
-37.49
-24.82
-11.71
-0.23
8.49
14.33
17.87
19.86
20.84
20.90
20.10
18.51
16.62
15.09
14.43
14.83
15.91
17.04
17.68
17.68
17.39
17.34
17.97
19.30
20.91
22.22
22.61
21.91
20.27
18.05
15.58
12.84
9.36
4.45
-2.49
-11.41
-21.40
-30.76
-37.49
-39.94
-37.39
-30.41
-20.46
-9.45
0.98
9.89
16.92
22.14
25.64
27.33
27.12
25.23
22.37
19.73
18.66
20.15
24.37
30.64
37.47
43.38
47.19
48.51
47.64
45.22
41.85
37.85
33.31
28.23
22.74
17.16
11.68
6.26
0.49
-6.26
-14.20
-22.90
-31.05
-36.78
-38.48
-35.46
-28.30
-18.76
-9.01
-0.81
5.09
8.92
11.55
13.70
15.53
16.62
16.31
14.38
11.29
8.14
6.26
6.46
8.60
11.61
14.08
14.91
13.79
11.27
8.23
5.42
3.02
0.47
-2.93
-7.76
-14.10
-21.52
-29.31
-36.65
-42.73
-46.78
-47.95
-45.47
-38.83
-28.12
-14.19
1.36
16.50
29.32
38.43
43.53
45.17
44.56
43.03
41.34
39.65
37.56
34.69
31.04
27.14
23.74
21.28
19.63
18.10
15.68
11.85
6.66
0.92
-4.21
-7.76
-9.38
-9.56
-9.47
-10.44
-13.48
-18.88
-26.25
-34.57
-42.54
-48.83
-52.12
-51.52
-46.35
-36.67
-23.25
-7.58
8.27
22.17
32.46
38.47
40.73
40.70
40.25
40.80
43.04
46.72
50.86
54.64
57.62
60.05
62.49
65.27
68.17
70.29
70.51
68.12
63.28
57.09
51.02
46.34
43.50
41.92
40.50
37.90
33.42
26.90
18.61
8.92
-2.16
-14.94
-29.71
-46.32
-63.93
-81.12
-96.24
-107.93
-115.20
-117.47
-114.65
-106.79
-94.41
-78.35
-59.85
-40.54
-22.11
-6.11
6.35
14.93
20.23
23.74
27.38
33.00
41.67
53.20
66.40
79.37
90.48
98.79
104.09
106.75
106.93
104.41
98.68
89.64
78.13
65.90
55.13
47.32
42.63
39.82
36.75
31.77
24.35
15.37
6.43
-1.28
-7.69
-13.79
-20.93
-29.67
-39.18
-47.41
-52.01
-51.40
-45.50
-35.86
-24.84
-14.86
-7.37
-2.68
-0.34
0.41
0.00
-1.45
-3.96
-7.24
-10.57
-12.95
-13.52
-11.91
-8.33
-3.49
1.72
6.61
10.77
14.16
16.94
19.30
21.44
23.39
25.04
26.09
26.14
24.69
21.31
15.87
8.53
-0.21
-9.66
-19.24
-28.46
-36.91
-44.08
-49.20
-51.30
-49.50
-43.36
-33.21
-20.10
-5.48
9.28
23.16
35.58
46.21
54.70
60.68
63.83
64.24
62.50
59.61
56.66
54.52
53.68
54.23
55.98
58.51
61.26
63.49
64.35
63.25
59.91
54.56
47.92
40.97
34.77
30.34
28.59
29.88
33.56
37.50
38.27
32.13
16.61
-8.19
-39.16
-70.97
-97.98
-115.95
-123.23
-120.64
-110.59
-96.07
-79.80
-64.17
-51.10
-42.06
-37.67
-37.41
-39.65
-42.15
-42.87
-40.60
-35.25
-27.70
-19.21
-10.82
-2.99
4.28
11.21
17.84
23.97
29.19
33.18
35.88
37.55
38.50
38.90
38.62
37.25
34.44
30.02
24.23
17.57
10.51
3.24
-4.31
-12.34
-20.78
-29.08
-36.29
-41.41
-43.75
-43.25
-40.45
-36.04
-30.59
-24.27
-16.90
-8.39
0.98
10.32
18.31
23.72
25.99
25.57
23.81
22.47
22.85
25.29
28.94
31.96
32.43
28.95
21.30
10.55
-1.39
-12.35
-20.75
-25.92
-28.22
-28.69
-28.50
-28.63
-29.65
-31.86
-35.56
-40.89
-47.69
-54.98
-60.88
-63.03
-59.40
-49.42
-34.34
-16.94
-0.40
12.94
22.21
27.99
31.44
33.52
34.54
34.16
32.09
28.40
23.74
19.05
15.06
12.06
9.79
7.74
5.59
3.41
1.66
0.95
1.70
3.81
6.59
9.10
10.38
10.01
8.11
5.26
2.09
-1.11
-4.45
-8.33
-13.05
-18.51
-24.12
-28.95
-32.13
-32.99
-31.24
-27.02
-20.59
-12.42
-3.12
6.58
15.71
23.26
28.35
30.56
30.13
27.84
24.78
21.88
19.63
18.04
16.70
15.18
13.22
10.94
8.79
7.27
6.75
7.10
7.80
8.03
7.14
4.94
1.77
-1.59
-4.40
-6.30
-7.44
-8.49
-10.07
-12.62
-16.16
-20.39
-25.07
-30.06
-35.30
-40.55
-45.05
-47.62
-47.05
-42.62
-34.62
-24.32
-13.78
-4.86
1.13
4.02
4.50
3.63
2.37
1.11
-0.17
-1.69
-3.43
-4.99
-5.75
-5.13
-3.10
-0.16
2.83
4.93
5.71
5.28
4.20
3.10
2.31
1.63
0.48
-1.66
-4.96
-8.96
-12.82
-15.78
-17.46
-18.17
-18.80
-20.31
-23.32
-27.64
-32.30
-35.84
-36.85
-34.64
-29.47
-22.41
-14.87
-7.95
-2.22
2.45
6.32
9.56
12.04
13.29
13.09
11.58
9.36
7.34
6.13
5.88
6.21
6.51
6.36
5.78
5.18
4.97
5.33
5.96
6.13
5.18
2.86
-0.50
-3.98
-6.66
-8.01
-8.17
-7.97
-8.42
-10.22
-13.39
-17.24
-20.56
-22.19
-21.35
-17.86
-12.22
-5.19
2.31
9.54
15.95
21.11
24.70
26.49
26.51
25.18
23.26
21.68
21.13
21.89
23.72
25.92
27.89
29.23
29.94
30.25
30.29
29.95
28.69
25.86
20.98
14.06
5.76
-2.88
-10.74
-17.10
-21.87
-25.46
-28.68
-32.16
-36.17
-40.54
-44.75
-48.23
-50.52
-51.34
-50.45
-47.66
-42.82
-36.01
-27.71
-18.80
-10.37
-3.54
1.07
3.34
3.87
3.57
3.39
4.01
5.55
7.66
9.78
11.41
12.38
12.82
13.13
13.62
14.35
15.16
15.57
15.27
14.07
12.09
9.65
7.02
4.36
1.62
-1.24
-4.16
-6.82
-8.89
-10.24
-11.10
-12.09
-13.98
-17.10
-21.15
-25.08
-27.43
-27.03
-23.51
-17.53
-10.53
-4.17
0.43
2.97
3.88
3.98
3.91
3.86
3.71
3.10
2.06
0.87
0.10
0.21
1.24
2.72
3.88
4.08
3.19
1.69
0.43
0.08
0.89
2.39
3.67
3.91
2.70
0.37
-2.25
-4.31
-5.30
-5.42
-5.36
-5.97
-7.80
-10.73
-14.12
-16.88
-17.98
-16.77
-13.13
-7.63
-1.17
5.21
10.64
14.58
16.77
17.16
15.87
13.16
9.58
5.84
2.71
0.71
-0.03
0.17
0.68
0.99
0.84
0.33
-0.20
-0.45
-0.34
-0.13
-0.26
-1.09
-2.70
-4.77
-6.76
-8.10
-8.58
-8.41
-8.14
-8.54
-10.02
-12.68
-16.16
-19.81
-23.03
-25.37
-26.57
-26.49
-24.97
-21.82
-17.01
-10.85
-4.01
2.55
7.73
10.91
11.91
11.23
9.74
8.34
7.63
7.70
8.20
8.58
8.49
7.89
7.01
6.30
6.09
6.44
7.12
7.66
7.73
7.20
6.17
4.91
3.52
1.90
-0.23
-3.05
-6.39
-9.82
-12.73
-14.81
-16.23
-17.63
-19.85
-23.32
-27.78
-32.16
-34.95
-34.87
-31.43
-25.19
-17.57
-10.26
-4.46
-0.56
1.85
3.61
5.39
7.32
9.07
10.04
9.98
9.10
8.08
7.65
8.17
9.42
10.72
11.37
11.05
9.94
8.69
7.91
7.92
8.55
9.19
9.22
8.28
6.49
4.32
2.29
0.64
-0.86
-2.71
-5.37
-8.92
-12.94
-16.86
-20.16
-22.79
-25.11
-27.54
-30.27
-32.81
-34.23
-33.47
-29.92
-23.78
-16.08
-8.26
-1.59
3.30
6.59
8.95
11.07
13.28
15.40
16.82
17.15
16.36
15.01
13.94
13.82
14.78
16.27
17.40
17.39
16.01
13.71
11.33
9.67
9.08
9.23
9.42
8.80
7.04
4.29
1.19
-1.51
-3.46
-4.83
-6.24
-8.42
-11.72
-16.03
-20.78
-25.21
-28.68
-30.78
-31.43
-30.60
-28.35
-24.72
-19.86
-14.17
-8.33
-3.25
0.24
1.74
1.48
0.28
-0.83
-0.94
0.21
2.20
4.27
5.62
5.96
5.47
4.60
3.74
2.80
1.35
-1.14
-4.76
-9.00
-12.85
-15.21
-15.46
-13.65
-10.41
-6.85
-3.72
-1.51
-0.15
0.74
1.44
1.93
1.73
0.22
-2.95
-7.34
-11.63
-13.97
-12.65
-6.85
2.78
14.58
26.19
35.91
42.97
47.73
51.19
54.11
56.64
58.42
59.13
59.02
58.87
59.61
61.50
63.69
64.54
61.96
54.83
43.11
28.09
11.77
-4.01
-18.04
-29.99
-40.01
-48.25
-54.53
-58.27
-58.84
-55.93
-49.80
-41.59
-32.70
-24.85
-19.26
-16.64
-17.16
-20.66
-27.04
-36.26
-48.00
-61.20
-73.71
-82.64
-85.16
-79.71
-66.76
-48.73
-29.45
-12.36
0.28
8.17
12.49
14.93
16.75
18.32
19.45
19.92
20.03
20.57
22.37
25.84
30.56
35.22
38.41
38.95
36.76
32.66
28.05
24.21
21.63
19.85
17.90
14.96
10.95
6.56
2.94
0.86
0.30
0.44
-0.15
-2.43
-6.65
-12.15
-17.71
-22.33
-25.55
-27.61
-28.94
-29.61
-29.10
-26.43
-20.92
-12.54
-2.28
8.06
16.81
22.76
25.85
26.76
26.49
25.82
24.87
23.24
20.49
16.60
12.25
8.57
6.73
7.28
9.89
13.56
16.92
19.09
19.87
19.74
19.49
19.45
19.31
18.12
14.99
9.62
2.65
-4.48
-10.30
-13.87
-15.30
-15.80
-16.89
-19.96
-25.34
-32.25
-39.12
-44.16
-46.23
-45.08
-41.33
-35.97
-29.82
-23.29
-16.33
-8.91
-1.34
5.70
11.21
14.60
15.86
15.73
15.39
15.77
17.18
19.14
20.80
21.48
21.11
20.31
19.92
20.54
22.14
23.90
24.87
24.24
21.93
18.56
15.00
11.98
9.59
7.37
4.64
1.05
-3.09
-7.02
-9.83
-11.09
-11.09
-10.61
-10.75
-12.04
-14.44
-17.37
-20.07
-22.31
-24.50
-27.60
-32.39
-38.81
-45.67
-50.89
-52.44
-49.24
-41.69
-31.69
-21.55
-13.23
-7.35
-3.27
0.30
4.49
9.56
14.85
19.30
22.11
23.11
22.68
21.46
19.81
17.73
15.10
11.74
8.05
4.63
2.15
0.99
0.80
0.71
-0.43
-3.50
-8.66
-15.36
-22.52
-29.17
-34.69
-39.10
-42.89
-46.38
-49.67
-52.24
-53.34
-52.44
-49.60
-45.59
-41.66
-38.93
-37.90
-38.33
-39.42
-40.11
-39.62
-37.56
-33.91
-29.04
-23.15
-16.43
-8.93
-0.64
8.18
16.97
24.92
31.30
35.80
38.74
40.97
43.33
46.34
49.92
53.36
56.02
57.50
58.06
58.39
59.16
60.73
62.89
65.16
67.13
68.80
70.61
73.04
76.28
79.75
82.20
82.22
78.58
71.19
60.99
49.86
39.86
32.49
28.17
26.29
25.69
25.30
24.58
23.65
22.87
22.57
22.68
22.59
21.65
19.14
14.78
8.52
0.47
-9.24
-20.52
-33.22
-46.76
-60.01
-71.31
-78.84
-81.17
-77.96
-70.17
-59.86
-49.66
-41.69
-37.09
-35.76
-36.69
-38.73
-41.00
-43.15
-45.13
-46.84
-47.94
-47.90
-46.39
-43.37
-39.29
-35.06
-31.50
-29.27
-28.49
-28.81
-29.72
-30.80
-32.06
-33.91
-36.79
-40.68
-44.78
-47.66
-47.73
-44.04
-36.66
-26.62
-15.56
-4.86
4.65
12.79
19.77
25.66
30.27
33.21
34.22
33.53
31.82
29.95
28.50
27.65
27.04
26.02
24.26
21.72
18.94
16.67
15.47
15.38
15.83
15.84
14.60
11.96
8.59
5.65
4.26
4.79
6.67
8.66
9.30
7.90
4.72
0.93
-1.77
-2.02
0.76
6.23
13.41
21.14
28.48
34.89
40.03
43.72
45.73
45.64
43.39
39.22
33.96
28.82
24.82
22.42
21.23
20.14
17.92
13.83
7.93
0.96
-5.96
-11.97
-16.76
-20.54
-24.01
-27.57
-31.38
-35.17
-38.44
-40.95
-42.83
-44.56
-46.62
-49.01
-51.24
-52.44
-51.97
-49.78
-46.53
-43.44
-41.27
-40.01
-38.60
-35.34
-28.88
-18.85
-6.20
7.24
19.56
29.67
37.54
43.93
49.77
55.46
60.58
64.32
65.76
64.79
62.01
58.52
55.35
52.78
50.28
46.87
41.85
35.43
28.76
23.50
20.97
21.58
24.65
28.54
31.62
32.55
30.79
26.50
20.16
12.21
2.82
-8.07
-20.45
-34.02
-47.94
-61.15
-72.53
-81.22
-86.90
-89.40
-88.80
-84.83
-77.18
-65.78
-51.09
-34.50
-18.08
-3.93
6.61
13.47
17.78
21.29
25.38
30.43
35.74
39.76
41.25
39.66
35.54
30.14
24.76
20.11
16.15
12.38
8.39
4.37
1.09
-0.46
0.47
3.88
8.93
14.33
18.62
21.00
21.31
20.10
18.20
16.15
13.96
11.17
7.26
2.11
-3.86
-9.86
-15.29
-19.99
-24.22
-28.59
-33.06
-37.06
-39.39
-38.76
-34.54
-27.05
-17.61
-7.98
0.28
6.39
10.53
13.45
16.10
19.07
22.32
25.46
27.79
29.01
29.16
28.59
27.67
26.36
24.28
21.01
16.52
11.54
7.28
4.98
5.20
7.52
10.66
12.90
13.11
10.99
7.21
3.02
-0.63
-3.47
-6.13
-9.64
-14.83
-21.67
-29.13
-35.56
-39.22
-39.04
-35.04
-28.08
-19.67
-11.10
-3.20
3.69
9.62
14.47
17.90
19.41
18.82
16.58
13.75
11.70
11.39
13.01
15.97
18.93
20.87
21.20
20.12
18.46
17.02
16.24
15.92
15.48
14.32
12.22
9.48
6.67
4.35
2.76
1.56
0.26
-1.73
-4.49
-7.73
-11.03
-14.18
-17.52
-21.80
-27.57
-34.57
-41.45
-46.14
-46.66
-42.18
-33.43
-22.45
-12.01
-4.07
0.50
2.19
2.22
1.73
1.24
0.55
-0.84
-3.15
-5.96
-8.31
-9.22
-8.10
-5.06
-0.99
3.16
6.60
9.30
11.85
14.92
18.93
23.34
26.93
28.28
26.60
22.27
16.71
11.80
8.85
7.99
8.23
7.80
5.41
0.60
-6.00
-13.06
-19.33
-23.96
-26.67
-27.41
-26.06
-22.38
-16.13
-7.60
2.32
12.20
20.29
25.45
27.18
26.17
23.86
21.83
21.31
22.54
24.86
27.16
28.63
29.28
29.85
31.39
34.43
38.58
42.62
44.83
44.19
40.52
34.67
28.01
21.61
15.88
10.52
4.94
-1.15
-7.47
-13.21
-17.57
-20.12
-21.05
-21.20
-21.46
-22.56
-24.65
-27.41
-30.40
-33.28
-35.99
-38.67
-41.25
-43.18
-43.44
-40.93
-34.91
-25.71
-14.66
-3.87
4.20
7.96
6.78
1.32
-6.88
-16.09
-24.90
-32.52
-38.60
-42.82
-44.64
-43.36
-38.57
-30.49
-20.26
-9.71
-0.55
6.08
10.22
12.75
14.79
17.07
19.41
20.93
20.61
18.08
13.97
9.66
6.71
5.91
6.98
8.68
9.13
7.10
2.21
-4.74
-12.12
-18.24
-21.93
-22.81
-21.07
-17.10
-11.12
-3.13
6.68
17.80
29.15
39.14
46.45
50.27
50.86
49.38
47.36
46.11
46.07
46.81
47.36
46.94
45.46
43.52
42.20
42.40
44.43
47.95
52.02
55.91
59.09
61.42
62.91
63.19
61.50
56.89
48.87
37.95
25.64
13.96
4.44
-2.54
-7.87
-13.39
-20.52
-29.74
-40.01
-49.37
-55.87
-58.50
-57.64
-54.83
-51.90
-50.16
-49.86
-50.38
-50.70
-50.16
-48.81
-47.25
-46.43
-46.64
-47.59
-48.39
-48.03
-46.16
-43.23
-40.44
-38.97
-39.34
-41.11
-43.01
-43.72
-42.37
-39.00
-34.63
-30.31
-26.86
-24.14
-21.22
-16.92
-10.46
-2.12
6.85
14.84
20.72
24.58
27.65
31.89
39.05
50.03
64.68
81.71
99.66
116.95
132.37
145.02
153.97
158.16
156.38
147.65
131.97
110.71
86.68
63.23
42.96
26.53
12.11
-3.22
-21.99
-44.40
-67.83
-88.06
-101.09
-104.87
-99.61
-86.76
-67.66
-43.18
-14.45
15.78
42.44
59.18
60.90
45.96
17.61
-17.36
-51.22
-77.92
-94.71
-101.65
-100.13
-91.40
-76.06
-54.61
-28.32
0.35
28.36
53.10
73.18
88.99
101.91
113.52
124.66
134.96
143.03
146.81
144.43
134.86
118.57
97.58
74.97
54.01
36.87
23.98
14.00
4.44
-6.82
-20.65
-36.27
-51.67
-64.76
-74.24
-80.01
-82.76
-83.26
-81.90
-78.65
-73.65
-67.49
-61.29
-56.44
-53.51
-52.26
-51.32
-49.10
-44.62
-38.06
-30.91
-25.25
-22.81
-24.06
-28.10
-33.20
-37.62
-40.47
-42.01
-43.20
-45.22
-48.40
-52.22
-55.54
-57.14
-56.58
-54.20
-51.02
-47.95
-45.34
-42.84
-39.81
-35.99
-31.72
-28.00
-26.19
-26.99
-30.34
-35.19
-39.99
-43.54
-45.50
-46.64
-48.31
-51.61
-56.53
-61.72
-65.02
-64.37
-58.88
-49.30
-37.61
-26.42
-17.49
-11.47
-7.78
-5.18
-2.77
-0.39
1.49
2.28
1.96
1.24
1.33
3.17
7.01
12.13
17.01
20.41
21.69
21.31
20.49
20.42
21.58
23.39
24.49
23.51
19.91
14.28
8.07
2.97
0.02
-0.84
-0.55
-0.63
-2.13
-5.44
-10.19
-15.56
-20.84
-25.69
-29.99
-33.51
-35.65
-35.55
-32.43
-26.27
-17.93
-9.02
-1.51
3.39
5.34
5.08
3.98
3.26
3.55
4.68
5.96
6.71
6.74
6.42
6.35
7.11
8.80
10.98
12.99
14.07
13.96
12.81
11.09
9.29
7.55
5.59
2.89
-0.87
-5.42
-10.02
-13.59
-15.47
-15.71
-15.18
-15.36
-17.38
-21.63
-27.27
-32.56
-35.63
-35.20
-31.17
-24.53
-16.87
-9.52
-3.15
2.32
7.44
12.66
17.90
22.71
26.30
28.30
28.81
28.40
27.79
27.35
26.91
25.87
23.73
20.44
16.61
13.27
11.28
10.98
11.95
13.11
13.55
12.69
10.77
8.56
6.91
6.26
6.39
6.58
6.09
4.60
2.44
0.28
-1.24
-2.00
-2.65
-4.15
-7.48
-12.69
-18.89
-24.34
-27.18
-26.37
-22.05
-15.50
-8.37
-1.90
3.60
8.64
13.91
19.68
25.40
29.84
31.93
31.26
28.44
24.85
21.87
20.26
19.82
19.72
19.09
17.58
15.64
14.13
13.90
15.18
17.40
19.60
20.67
20.16
18.30
15.83
13.62
12.03
10.81
9.28
6.85
3.45
-0.40
-3.84
-6.31
-7.84
-9.10
-11.20
-14.70
-19.44
-24.27
-27.44
-27.48
-23.82
-17.16
-9.12
-1.58
4.15
7.80
9.85
11.21
12.44
13.43
13.64
12.44
9.84
6.53
3.68
2.36
2.91
4.72
6.66
7.68
7.46
6.60
6.23
7.30
10.08
13.96
17.60
20.00
20.71
20.20
19.50
19.53
20.58
22.18
23.40
23.44
22.11
19.83
17.32
15.25
13.86
12.90
12.04
11.08
10.31
10.39
11.95
15.18
19.44
23.45
25.76
25.39
22.37
17.59
12.39
7.81
4.18
1.17
-2.04
-5.91
-10.38
-14.90
-18.65
-21.16
-22.42
-22.85
-22.88
-22.69
-21.90
-19.91
-16.17
-10.55
-3.54
3.81
10.47
15.67
19.46
22.55
25.85
29.90
34.22
37.48
37.94
34.35
26.68
16.20
5.06
-4.72
-11.92
-16.37
-18.84
-20.21
-21.16
-21.86
-22.12
-21.84
-21.23
-20.86
-21.40
-23.22
-26.15
-29.42
-32.04
-33.11
-32.23
-29.68
-26.13
-22.46
-19.15
-16.16
-13.01
-9.09
-4.23
1.17
6.14
9.70
11.28
11.03
9.71
8.17
7.02
6.33
5.58
4.25
1.99
-1.08
-4.48
-7.70
-10.40
-12.50
-13.88
-14.07
-12.21
-7.31
1.02
12.24
24.56
35.37
42.35
44.10
40.89
34.30
26.42
19.04
12.94
7.96
3.56
-0.50
-3.76
-5.24
-3.95
0.40
7.14
14.82
21.58
26.09
27.69
26.62
23.74
19.99
16.27
13.16
11.08
10.29
10.94
13.00
16.12
19.76
23.30
26.14
28.11
29.36
30.66
33.09
37.75
45.35
55.70
67.66
79.37
88.92
94.95
97.08
95.80
91.98
86.35
79.31
70.78
60.71
49.19
36.49
23.06
9.09
-5.46
-20.76
-36.76
-52.98
-68.45
-82.01
-92.77
-100.51
-105.79
-109.94
-114.42
-120.42
-128.23
-137.10
-145.51
-151.69
-154.42
-153.49
-149.67
-144.28
-138.47
-132.74
-126.75
-119.71
-110.85
-99.87
-87.21
-73.59
-59.83
-46.42
-33.49
-21.12
-9.54
0.74
9.17
15.44
19.82
23.12
26.33
30.28
35.26
40.81
46.26
50.82
54.18
56.49
58.14
59.51
60.59
61.01
60.30
58.19
54.94
51.15
47.60
44.71
42.46
40.53
38.38
35.93
33.40
31.26
29.94
29.41
29.16
28.44
26.63
23.63
20.00
16.77
14.99
15.39
18.06
22.34
27.28
31.80
35.24
37.44
38.56
38.93
38.58
37.33
34.89
31.21
26.74
22.22
18.52
16.05
14.58
13.42
11.56
8.45
4.13
-0.75
-5.26
-8.75
-11.19
-13.15
-15.40
-18.49
-22.37
-26.48
-30.15
-32.93
-34.86
-36.44
-38.12
-40.14
-42.24
-43.93
-44.90
-45.25
-45.53
-46.44
-48.35
-50.91
-53.02
-53.29
-50.62
-44.81
-36.64
-27.57
-19.25
-12.75
-8.34
-5.55
-3.54
-1.64
0.44
2.54
4.34
5.71
6.79
7.96
9.46
11.29
13.08
14.19
14.18
12.90
10.75
8.52
6.98
6.61
7.28
8.35
9.04
8.82
7.72
6.22
5.08
4.78
5.33
6.29
6.83
6.40
4.85
2.53
0.04
-2.22
-4.19
-6.13
-8.14
-9.79
-10.13
-7.94
-2.47
6.17
16.92
28.05
38.05
46.03
52.06
56.81
60.90
64.46
66.85
66.96
63.79
56.97
46.99
35.03
22.53
10.64
-0.09
-9.60
-18.17
-25.88
-32.53
-37.69
-40.81
-41.72
-40.73
-38.51
-35.78
-32.97
-30.05
-26.68
-22.57
-17.75
-12.73
-8.41
-5.49
-4.28
-4.45
-5.28
-6.11
-6.72
-7.51
-9.20
-12.34
-16.79
-21.58
-25.23
-26.33
-24.18
-19.15
-12.40
-5.60
-0.02
3.77
5.97
7.30
8.35
9.31
9.87
9.62
8.47
6.86
5.72
5.88
7.71
10.85
14.18
16.58
17.29
16.37
14.57
12.82
11.76
11.29
10.79
9.46
6.90
3.39
-0.32
-3.24
-4.75
-4.91
-4.25
-3.69
-3.86
-5.00
-6.98
-9.37
-11.89
-14.41
-16.89
-19.12
-20.59
-20.53
-18.28
-13.71
-7.37
-0.34
5.96
10.61
13.20
14.11
14.17
14.19
14.64
15.48
16.28
16.58
16.24
15.57
15.14
15.51
16.81
18.65
20.36
21.15
20.75
19.41
17.76
16.50
15.88
15.59
14.89
13.10
9.98
5.97
1.99
-1.01
-2.49
-2.50
-1.72
-0.88
-0.55
-0.82
-1.42
-2.03
-2.41
-2.54
-2.37
-1.62
0.30
4.12
10.20
18.40
27.86
37.28
45.50
51.73
56.04
59.05
61.68
64.69
68.29
72.17
75.72
78.55
80.81
83.21
86.81
92.35
99.95
108.85
117.44
123.91
126.51
124.08
116.20
103.04
85.17
63.17
37.62
9.15
-21.31
-52.41
-82.45
-109.62
-132.43
-149.97
-162.02
-168.99
-171.53
-170.45
-166.56
-160.60
-153.29
-145.11
-136.25
-126.39
-114.91
-101.15
-84.84
-66.46
-47.09
-28.19
-11.23
3.01
14.39
23.45
31.10
38.16
45.09
51.81
57.88
62.71
65.83
67.07
66.46
64.18
60.29
54.76
47.59
38.84
29.02
18.87
9.11
0.21
-7.96
-16.06
-24.82
-34.61
-45.08
-55.16
-63.53
-69.08
-71.37
-70.71
-68.10
-64.71
-61.62
-59.49
-58.46
-58.33
-58.71
-59.28
-59.91
-60.63
-61.51
-62.54
-63.56
-64.23
-64.24
-63.48
-61.95
-59.90
-57.40
-54.42
-50.73
-46.06
-40.44
-34.15
-27.63
-21.33
-15.30
-9.34
-3.12
3.46
10.15
16.40
21.45
24.91
26.80
27.57
27.93
28.40
29.13
29.84
30.11
29.63
28.47
27.03
25.79
25.11
25.11
25.72
27.07
29.45
33.50
39.80
48.50
59.18
70.75
81.88
91.49
99.13
105.11
110.19
115.14
120.23
125.07
128.77
130.22
128.79
124.39
117.65
109.61
101.16
92.88
84.77
76.58
68.08
59.26
50.43
41.84
33.62
25.59
17.26
8.34
-1.21
-10.93
-20.05
-27.85
-34.00
-38.76
-42.90
-47.40
-52.92
-59.46
-66.31
-72.21
-75.88
-76.56
-74.28
-70.01
-65.01
-60.47
-56.85
-53.79
-50.54
-46.48
-41.66
-36.76
-32.67
-29.91
-28.27
-26.89
-24.63
-20.63
-14.70
-7.03
1.87
11.70
22.38
33.91
46.14
58.50
70.00
79.58
86.39
90.12
91.00
89.65
86.70
82.52
77.15
70.18
61.29
50.35
37.64
23.80
9.52
-4.75
-18.90
-33.01
-47.08
-60.78
-73.48
-84.60
-93.88
-101.68
-108.90
-116.49
-125.17
-134.88
-144.92
-154.16
-161.51
-166.32
-168.57
-168.64
-166.89
-163.30
-157.37
-148.32
-135.68
-119.64
-101.28
-82.41
-64.72
-49.35
-36.60
-25.89
-16.41
-7.53
0.89
8.58
15.21
20.65
25.02
28.51
31.07
32.30
31.38
27.74
21.25
12.74
3.73
-4.05
-9.32
-11.83
-12.39
-12.38
-13.16
-15.40
-19.01
-23.31
-27.73
-32.19
-37.28
-44.09
-53.31
-64.83
-77.36
-88.87
-97.40
-101.92
-102.63
-100.53
-96.68
-91.43
-84.29
-74.54
-61.96
-47.36
-32.55
-19.37
-9.02
-1.34
4.88
11.11
18.23
26.00
33.21
38.44
40.80
40.57
38.93
37.54
37.73
40.12
44.61
50.53
57.23
64.19
70.96
77.00
81.41
83.07
80.94
74.48
64.03
50.76
36.43
22.76
11.05
1.81
-5.40
-11.40
-17.03
-22.31
-26.40
-27.97
-25.92
-20.20
-12.02
-3.39
3.85
8.89
12.19
15.14
19.01
24.38
30.89
37.49
43.35
48.17
52.35
56.78
62.26
69.28
77.99
88.30
100.12
113.20
127.10
140.89
153.29
162.94
168.73
170.32
168.06
162.87
155.74
147.23
137.33
125.45
110.79
92.70
71.04
46.20
19.14
-8.68
-35.57
-59.90
-80.37
-96.61
-108.87
-118.06
-125.09
-130.42
-133.95
-135.26
-134.12
-130.78
-126.01
-120.79
-115.91
-111.80
-108.43
-105.53
-102.79
-99.69
-95.66
-89.95
-81.92
-71.40
-58.87
-45.44
-32.58
-21.53
-12.95
-6.70
-2.19
1.44
4.79
8.05
11.16
13.74
15.62
16.81
17.50
17.97
18.30
18.25
17.35
15.21
11.78
7.53
3.26
-0.27
-2.68
-4.19
-5.56
-7.47
-10.34
-13.87
-17.30
-19.88
-21.28
-21.90
-22.53
-23.86
-25.80
-27.39
-27.17
-23.87
-17.09
-7.64
3.03
13.31
22.41
30.35
37.76
45.23
52.68
59.33
64.11
66.20
65.67
63.43
60.84
59.04
58.50
58.98
59.70
60.14
60.16
60.31
61.37
63.77
67.19
70.50
72.19
70.99
66.54
59.53
51.25
43.13
36.05
30.21
25.41
21.39
18.38
17.01
17.93
21.45
26.92
32.95
37.76
40.01
39.43
36.79
33.59
31.16
30.06
29.94
29.65
28.17
24.97
20.40
15.43
11.07
7.85
5.53
3.24
-0.01
-4.85
-11.27
-18.75
-26.54
-34.15
-41.49
-48.79
-56.37
-64.18
-71.75
-78.35
-83.25
-86.17
-87.33
-87.28
-86.52
-85.09
-82.51
-77.93
-70.66
-60.54
-48.18
-34.99
-22.46
-11.85
-3.58
2.84
8.38
14.03
20.19
26.61
32.61
37.67
41.75
45.28
48.92
53.01
57.26
60.96
63.18
63.51
62.13
59.83
57.64
56.26
55.85
56.07
56.46
56.86
57.60
59.34
62.59
67.38
73.03
78.16
81.42
81.80
79.09
73.91
67.38
60.73
54.82
49.96
45.87
41.98
37.66
32.42
26.14
18.92
10.90
2.25
-7.09
-16.99
-27.19
-37.14
-46.09
-53.51
-59.22
-63.39
-66.36
-68.34
-69.32
-69.26
-68.31
-67.05
-66.27
-66.84
-69.10
-72.87
-77.34
-81.57
-84.88
-87.17
-89.01
-91.37
-95.16
-100.71
-107.42
-113.78
-117.64
-117.05
-110.88
-99.22
-83.45
-65.60
-47.79
-31.71
-18.29
-7.97
-0.84
3.27
4.79
4.60
3.89
3.89
5.42
8.61
12.83
16.89
19.70
20.56
19.52
17.28
14.80
12.88
11.78
11.22
10.58
9.37
7.53
5.45
3.86
3.38
4.20
6.05
8.17
9.81
10.38
9.69
7.98
5.72
3.54
2.12
2.14
4.12
8.30
14.39
21.46
28.11
32.72
33.88
31.11
24.82
16.43
7.78
0.54
-4.24
-6.40
-6.39
-4.88
-2.41
0.79
4.70
9.36
14.57
19.82
24.46
27.76
29.35
29.28
28.02
26.36
25.10
24.84
25.84
28.03
30.96
33.79
35.27
33.96
28.62
18.86
5.49
-9.25
-22.39
-31.21
-34.26
-31.91
-26.13
-19.53
-14.29
-11.33
-10.23
-9.72
-8.44
-5.49
-0.67
5.60
12.62
19.53
25.53
29.97
32.44
32.84
31.51
29.15
26.79
25.60
26.67
30.65
37.54
46.57
56.33
65.14
71.40
74.11
73.04
68.60
61.81
53.89
46.12
39.66
35.47
34.08
35.59
39.56
45.10
51.18
56.78
61.07
63.60
64.17
62.82
59.76
55.23
49.49
42.67
34.68
25.28
14.24
1.67
-11.83
-25.14
-37.00
-46.43
-53.17
-57.76
-61.15
-64.30
-67.69
-71.21
-74.37
-76.71
-78.14
-78.96
-79.80
-81.27
-83.83
-87.72
-92.92
-99.19
-106.15
-113.09
-119.13
-123.22
-124.45
-122.38
-117.14
-109.55
-100.79
-91.89
-83.40
-75.15
-66.47
-56.59
-45.07
-31.98
-17.76
-3.04
11.73
26.30
40.57
54.46
67.81
80.33
91.76
101.80
110.25
116.93
121.68
124.38
124.93
123.39
119.88
114.73
108.36
101.39
94.40
87.80
81.68
75.76
69.56
62.69
55.11
47.17
39.47
32.54
26.59
21.47
16.82
12.23
7.58
2.93
-1.54
-5.63
-9.16
-11.84
-13.09
-12.02
-7.64
0.77
13.23
28.86
45.96
62.44
76.24
85.92
90.77
90.92
87.13
80.56
72.52
64.22
56.59
50.20
45.32
41.94
39.92
39.07
39.11
39.79
40.88
42.20
43.82
45.95
48.93
53.09
58.56
65.18
72.51
79.96
86.97
93.14
98.22
101.97
103.98
103.60
99.99
92.47
80.74
65.29
47.29
28.42
10.46
-5.21
-17.89
-27.66
-35.20
-41.52
-47.62
-54.24
-61.85
-70.59
-80.34
-90.89
-101.84
-112.74
-123.14
-132.75
-141.60
-150.02
-158.32
-166.46
-173.74
-178.67
-179.44
-174.55
-163.36
-146.48
-125.66
-103.30
-81.77
-62.83
-47.29
-34.98
-25.15
-17.00
-10.05
-4.22
0.35
3.70
6.19
8.50
11.21
14.39
17.57
19.77
20.10
18.08
13.84
7.88
0.90
-6.45
-13.47
-19.29
-22.89
-23.21
-19.48
-11.45
0.54
15.78
33.32
52.27
71.72
90.73
108.22
123.02
133.98
140.21
141.24
137.09
128.42
116.40
102.52
88.24
74.62
61.97
49.97
37.90
25.38
12.71
1.02
-8.05
-13.15
-13.73
-10.32
-4.27
2.88
9.86
15.87
20.38
23.06
23.70
22.40
19.99
17.88
17.72
20.68
26.67
34.11
40.30
42.44
38.71
29.03
15.04
-0.66
-15.50
-27.93
-37.69
-45.56
-52.94
-61.02
-70.61
-81.91
-94.68
-108.48
-122.67
-136.57
-149.37
-160.19
-168.25
-173.00
-174.41
-172.98
-169.54
-165.20
-160.64
-156.23
-151.82
-147.17
-142.29
-137.59
-133.80
-131.52
-130.76
-130.79
-130.34
-128.19
-123.63
-116.83
-108.64
-100.08
-91.92
-84.20
-76.35
-67.56
-57.26
-45.51
-33.06
-21.07
-10.52
-1.80
5.38
11.82
18.28
25.14
32.23
38.86
44.40
48.46
51.19
53.12
54.83
56.61
58.24
59.16
58.74
56.80
53.77
50.51
48.00
46.78
46.71
47.07
46.91
45.62
43.12
39.84
36.43
33.28
30.41
27.53
24.38
21.03
17.84
15.31
13.62
12.46
11.18
9.09
6.07
2.68
0.09
-0.38
2.17
7.92
16.32
26.36
36.94
47.19
56.55
64.72
71.57
76.98
80.80
82.93
83.36
82.42
80.66
78.78
77.43
76.82
76.66
76.20
74.57
71.11
65.63
58.46
50.20
41.46
32.71
24.16
16.06
8.81
3.15
0.04
0.29
4.17
11.02
19.38
27.31
33.05
35.57
34.84
31.81
28.10
25.42
25.28
28.43
34.79
43.37
52.55
60.47
65.46
66.44
63.15
56.08
46.29
35.08
23.70
13.13
3.92
-3.79
-10.32
-16.27
-22.36
-29.16
-36.99
-45.82
-55.36
-65.21
-74.96
-84.22
-92.70
-100.12
-106.27
-111.03
-114.34
-116.32
-117.12
-116.99
-116.02
-114.25
-111.61
-107.99
-103.39
-97.89
-91.59
-84.46
-76.31
-66.92
-56.14
-44.23
-31.78
-19.64
-8.70
0.45
7.53
12.65
16.16
18.47
20.03
21.26
22.54
24.22
26.59
29.73
33.47
37.28
40.29
41.48
39.99
35.24
27.28
16.57
3.75
-10.62
-26.33
-43.39
-61.68
-80.58
-98.70
-114.12
-124.86
-129.66
-128.36
-122.03
-112.66
-102.31
-92.55
-84.02
-76.38
-68.76
-60.15
-49.86
-37.68
-23.82
-8.75
7.04
22.98
38.50
52.90
65.39
75.31
82.27
86.49
88.71
90.04
91.55
93.90
97.16
100.97
104.88
108.68
112.49
116.56
120.97
125.50
129.62
132.76
134.70
135.68
136.31
137.13
138.22
138.89
137.82
133.54
124.99
112.07
95.61
77.04
57.83
38.87
20.38
2.21
-15.77
-33.05
-48.56
-61.04
-69.70
-74.78
-77.50
-79.55
-82.32
-86.22
-90.63
-94.34
-96.27
-95.96
-93.65
-90.08
-85.91
-81.58
-77.14
-72.50
-67.68
-62.93
-58.62
-55.13
-52.61
-50.90
-49.63
-48.40
-46.93
-45.21
-43.49
-42.02
-41.08
-40.64
-40.52
-40.41
-40.12
-39.71
-39.46
-39.80
-41.01
-43.01
-45.28
-47.02
-47.40
-45.86
-42.36
-37.42
-31.80
-26.35
-21.58
-17.64
-14.41
-11.66
-9.22
-7.00
-5.00
-3.13
-1.25
0.81
3.13
5.60
7.92
9.77
10.88
11.29
11.31
11.32
11.67
12.34
12.92
12.84
11.67
9.38
6.45
3.66
1.67
0.76
0.68
0.81
0.58
-0.36
-1.95
-3.87
-5.72
-7.21
-8.08
-8.09
-6.86
-4.02
0.64
6.94
14.22
21.55
27.93
32.73
35.68
37.03
37.25
36.86
36.24
35.54
34.72
33.66
32.34
30.92
29.67
28.87
28.63
28.76
28.88
28.42
27.02
24.56
21.20
17.36
13.36
9.37
5.29
0.92
-3.93
-9.26
-14.89
-20.58
-26.21
-31.80
-37.43
-42.96
-47.98
-51.64
-53.10
-51.83
-47.94
-42.31
-36.26
-31.07
-27.51
-25.59
-24.85
-24.57
-24.29
-23.93
-23.72
-24.03
-24.92
-26.22
-27.45
-28.11
-27.96
-27.14
-26.16
-25.63
-25.98
-27.22
-28.96
-30.59
-31.59
-31.76
-31.42
-31.17
-31.72
-33.46
-36.27
-39.65
-42.87
-45.35
-46.84
-47.27
-46.55
-44.30
-39.93
-32.86
-22.96
-10.83
2.32
14.95
25.84
34.40
40.80
45.71
49.90
53.90
57.96
62.13
66.42
70.86
75.36
79.49
82.48
83.15
80.36
73.60
63.38
51.49
40.54
33.04
30.45
32.36
36.62
40.16
40.30
35.72
26.89
15.54
3.80
-6.70
-15.27
-22.03
-27.37
-31.59
-34.61
-36.08
-35.77
-33.76
-30.58
-27.07
-23.97
-21.65
-19.89
-18.08
-15.51
-11.75
-6.89
-1.44
3.87
8.53
12.37
15.59
18.61
21.73
25.01
28.21
30.97
32.96
34.03
34.30
33.99
33.30
32.30
30.83
28.76
25.99
22.59
18.86
15.06
11.45
8.12
5.09
2.42
0.21
-1.42
-2.56
-3.47
-4.63
-6.50
-9.15
-12.14
-14.47
-15.00
-12.91
-8.14
-1.57
5.37
11.18
14.89
16.35
16.10
14.98
13.72
12.63
11.78
11.07
10.56
10.47
11.06
12.53
14.70
17.15
19.30
20.64
20.97
20.44
19.51
18.65
18.26
18.35
18.61
18.55
17.69
15.83
13.07
9.72
6.06
2.10
-2.37
-7.56
-13.29
-18.76
-22.66
-23.64
-20.88
-14.53
-5.71
3.85
12.52
19.28
23.89
26.75
28.43
29.34
29.64
29.38
28.71
28.06
27.98
28.84
30.60
32.79
34.55
35.16
34.25
32.00
29.05
26.11
23.67
21.75
19.92
17.65
14.56
10.69
6.46
2.45
-0.91
-3.57
-5.80
-8.17
-11.12
-14.92
-19.50
-24.56
-29.65
-34.25
-37.80
-39.69
-39.34
-36.35
-30.70
-22.90
-13.90
-4.87
3.07
9.26
13.58
16.48
18.65
20.75
23.13
25.75
28.27
30.36
31.86
32.95
33.92
35.04
36.26
37.23
37.39
36.26
33.81
30.39
26.66
23.21
20.22
17.38
14.09
9.90
4.87
-0.43
-5.11
-8.53
-10.55
-11.62
-12.58
-14.20
-16.93
-20.74
-25.24
-29.87
-33.99
-36.99
-38.30
-37.49
-34.35
-29.10
-22.36
-15.13
-8.48
-3.27
0.14
1.90
2.73
3.43
4.71
6.88
9.77
12.89
15.71
17.92
19.51
20.74
21.91
23.14
24.40
25.55
26.53
27.45
28.55
30.09
32.13
34.45
36.59
38.03
38.40
37.70
36.34
34.95
34.19
34.42
35.60
37.31
38.98
40.19
41.03
42.21
45.04
51.08
61.57
76.92
96.35
117.95
139.14
157.22
170.08
176.47
176.19
169.78
158.30
143.00
125.12
105.68
85.49
65.10
44.87
25.20
6.60
-10.28
-24.77
-36.54
-45.87
-53.64
-61.16
-69.75
-80.23
-92.78
-106.81
-121.44
-135.75
-149.07
-161.20
-172.36
-183.09
-193.98
-205.41
-217.24
-228.79
-238.95
-246.55
-250.70
-251.03
-247.48
-240.16
-229.00
-213.92
-195.06
-173.17
-149.77
-126.84
-106.18
-88.79
-74.56
-62.47
-51.15
-39.53
-27.27
-14.74
-2.76
8.03
17.49
25.98
34.13
42.32
50.30
57.34
62.53
65.31
65.79
64.65
62.65
60.31
57.56
53.99
49.30
43.65
37.85
33.04
30.16
29.52
30.57
32.24
33.28
32.76
30.13
25.21
17.99
8.64
-2.37
-13.98
-24.60
-32.29
-35.35
-33.00
-25.59
-14.66
-2.43
8.86
17.50
22.65
24.23
22.80
19.23
14.63
10.11
6.57
4.64
4.41
5.55
7.41
9.33
10.87
11.96
12.74
13.59
14.86
16.87
19.70
23.18
26.79
29.73
31.20
30.62
28.10
24.39
20.70
18.20
17.47
18.27
19.63
20.37
19.63
17.15
13.29
8.56
3.42
-1.88
-7.24
-12.28
-16.41
-18.82
-18.92
-16.66
-12.63
-7.80
-3.10
1.01
4.65
8.32
12.52
17.44
22.77
27.86
31.97
34.46
35.19
34.34
32.43
30.04
27.52
24.92
22.06
18.79
15.18
11.63
8.71
6.82
6.07
6.16
6.51
6.78
6.97
7.52
9.08
12.01
16.06
20.27
23.27
23.78
21.17
15.64
8.11
-0.11
-7.73
-13.80
-17.63
-18.88
-17.37
-13.23
-6.89
0.86
8.93
16.11
21.38
24.14
24.30
22.25
18.72
14.49
10.30
6.77
4.31
3.26
3.69
5.36
7.68
9.74
10.56
9.43
6.21
1.33
-4.40
-10.25
-15.87
-21.32
-26.82
-32.51
-37.98
-42.54
-45.23
-45.38
-42.80
-37.95
-31.77
-25.38
-19.78
-15.62
-13.14
-12.31
-12.99
-14.98
-18.04
-21.76
-25.52
-28.45
-29.66
-28.51
-24.76
-18.73
-11.15
-2.84
5.55
13.78
22.01
30.57
39.53
48.55
56.64
62.37
64.41
61.96
55.39
46.15
36.47
28.52
23.61
21.77
21.91
22.50
22.38
21.25
19.65
18.46
18.31
19.24
20.63
21.72
21.70
19.89
15.71
8.76
-0.81
-12.04
-23.09
-31.79
-36.49
-36.86
-34.10
-30.37
-27.75
-27.35
-28.86
-31.04
-32.33
-31.61
-28.47
-23.17
-16.41
-9.08
-2.07
3.98
8.73
12.23
14.78
16.67
18.08
19.06
19.61
19.95
20.43
21.44
23.17
25.39
27.47
28.64
28.34
26.46
23.40
19.88
16.57
13.87
11.74
9.80
7.68
5.10
2.24
-0.44
-2.45
-3.42
-3.40
-2.86
-2.47
-2.77
-4.04
-6.16
-8.77
-11.54
-14.28
-16.91
-19.42
-21.53
-22.73
-22.40
-20.04
-15.69
-9.94
-3.83
1.56
5.56
8.03
9.38
10.16
10.84
11.58
12.21
12.52
12.35
11.84
11.33
11.22
11.74
12.83
14.04
14.78
14.53
13.15
10.90
8.35
6.05
4.26
2.91
1.52
-0.31
-2.76
-5.63
-8.46
-10.81
-12.47
-13.54
-14.34
-15.18
-16.18
-17.34
-18.59
-19.91
-21.38
-23.04
-24.74
-26.09
-26.41
-25.07
-21.66
-16.26
-9.47
-2.22
4.51
10.01
13.97
16.41
17.59
17.81
17.29
16.23
14.75
13.11
11.61
10.58
10.29
10.76
11.76
12.86
13.61
13.67
12.99
11.76
10.29
8.83
7.49
6.11
4.49
2.44
-0.00
-2.64
-5.15
-7.29
-9.03
-10.57
-12.25
-14.31
-16.78
-19.48
-22.07
-24.28
-25.92
-26.86
-27.03
-26.20
-24.10
-20.56
-15.61
-9.68
-3.51
2.07
6.39
9.15
10.47
10.79
10.58
10.27
10.08
10.01
9.99
9.88
9.63
9.26
8.80
8.33
7.88
7.41
6.87
6.25
5.62
5.12
4.88
4.93
5.15
5.31
5.10
4.41
3.30
2.00
0.82
-0.15
-1.04
-2.18
-3.88
-6.21
-8.94
-11.60
-13.82
-15.40
-16.50
-17.52
-18.78
-20.43
-22.15
-23.37
-23.45
-21.95
-18.82
-14.51
-9.74
-5.28
-1.68
0.81
2.31
3.06
3.32
3.26
2.90
2.35
1.75
1.34
1.39
1.97
2.96
4.01
4.77
5.05
4.91
4.64
4.50
4.64
4.98
5.17
4.92
4.04
2.64
1.02
-0.43
-1.42
-1.93
-2.19
-2.54
-3.27
-4.49
-6.05
-7.64
-8.99
-10.00
-10.76
-11.59
-12.80
-14.55
-16.78
-19.11
-21.08
-22.19
-22.11
-20.72
-18.14
-14.66
-10.64
-6.51
-2.70
0.43
2.57
3.61
3.64
3.07
2.45
2.33
3.02
4.43
6.19
7.75
8.72
9.05
8.96
8.86
9.05
9.56
10.17
10.51
10.33
9.60
8.49
7.28
6.16
5.16
4.19
3.13
2.01
0.95
0.07
-0.68
-1.56
-2.88
-4.85
-7.29
-9.66
-11.17
-11.16
-9.32
-5.86
-1.46
3.01
6.78
9.40
10.84
11.44
11.68
11.99
12.54
13.28
13.93
14.31
14.39
14.37
14.57
15.19
16.21
17.37
18.27
18.60
18.26
17.33
16.02
14.54
13.03
11.48
9.87
8.09
6.15
4.10
2.05
0.11
-1.67
-3.36
-5.06
-6.86
-8.77
-10.69
-12.55
-14.31
-16.10
-18.07
-20.35
-22.77
-24.91
-26.10
-25.73
-23.50
-19.62
-14.76
-9.80
-5.52
-2.31
-0.14
1.34
2.54
3.73
4.90
5.96
6.77
7.33
7.82
8.44
9.34
10.53
11.79
12.87
13.61
14.01
14.30
14.69
15.34
16.14
16.84
17.07
16.65
15.64
14.37
13.28
12.69
12.62
12.76
12.64
11.95
10.60
8.89
7.24
6.04
5.38
5.07
4.73
3.98
2.59
0.49
-2.29
-5.68
-9.57
-13.72
-17.75
-21.09
-23.23
-23.96
-23.49
-22.48
-21.76
-22.02
-23.62
-26.37
-29.75
-33.10
-35.83
-37.68
-38.67
-39.09
-39.27
-39.36
-39.35
-39.04
-38.29
-37.17
-35.94
-35.05
-34.72
-34.87
-35.11
-34.90
-33.87
-32.07
-29.89
-27.92
-26.64
-26.14
-26.22
-26.52
-26.73
-26.80
-26.87
-27.12
-27.69
-28.50
-29.29
-29.76
-29.62
-28.74
-27.05
-24.54
-21.12
-16.65
-11.02
-4.29
3.21
10.87
17.96
23.67
27.45
29.10
28.80
27.10
24.78
22.58
21.10
20.58
20.94
21.93
23.26
24.70
26.14
27.51
28.67
29.39
29.39
28.54
26.97
25.04
23.27
21.91
20.93
19.92
18.42
16.22
13.52
10.85
8.73
7.43
6.78
6.33
5.69
4.70
3.53
2.40
1.38
0.23
-1.49
-4.07
-7.41
-10.91
-13.60
-14.65
-13.57
-10.56
-6.40
-2.11
1.33
3.41
4.16
4.04
3.75
3.88
4.65
5.99
7.57
9.09
10.44
11.68
13.00
14.58
16.44
18.40
20.27
21.78
22.83
23.34
23.29
22.56
20.96
18.36
14.74
10.40
5.79
1.43
-2.37
-5.56
-8.42
-11.36
-14.78
-18.85
-23.42
-28.15
-32.59
-36.44
-39.63
-42.41
-45.16
-48.21
-51.64
-55.14
-58.10
-59.70
-59.22
-56.27
-50.85
-43.44
-34.74
-25.53
-16.47
-8.02
-0.39
6.37
12.31
17.54
22.18
26.39
30.25
33.76
36.71
38.80
39.66
39.04
36.96
33.70
29.75
25.57
21.52
17.75
14.32
11.24
8.56
6.35
4.56
3.08
1.66
-0.01
-2.03
-4.23
-6.22
-7.42
-7.47
-6.35
-4.52
-2.75
-1.80
-2.21
-4.00
-6.77
-9.81
-12.28
-13.43
-12.62
-9.59
-4.41
2.36
9.83
16.99
22.92
27.09
29.48
30.47
30.72
30.84
31.23
31.87
32.43
32.46
31.55
29.66
27.19
24.72
22.92
22.14
22.31
23.00
23.61
23.59
22.70
20.96
18.63
16.09
13.64
11.44
9.46
7.41
4.95
1.69
-2.67
-8.24
-15.01
-22.75
-31.08
-39.41
-47.06
-53.46
-58.27
-61.49
-63.44
-64.52
-65.04
-64.92
-63.80
-61.11
-56.37
-49.47
-40.80
-31.15
-21.49
-12.72
-5.35
0.57
5.33
9.41
13.26
17.08
20.90
24.55
27.84
30.62
32.89
34.75
36.29
37.54
38.46
38.97
39.04
38.75
38.26
37.74
37.21
36.56
35.50
33.80
31.38
28.40
25.19
22.03
19.02
16.01
12.72
8.93
4.66
0.14
-4.31
-8.39
-11.96
-15.10
-17.90
-20.55
-23.13
-25.60
-27.74
-29.16
-29.30
-27.68
-24.01
-18.38
-11.25
-3.36
4.50
11.65
17.66
22.26
25.31
26.84
26.97
25.98
24.29
22.27
20.27
18.47
16.96
15.73
14.76
14.05
13.54
13.12
12.60
11.70
10.16
7.80
4.63
0.95
-2.76
-5.90
-8.06
-9.06
-9.00
-8.13
-6.68
-4.77
-2.49
0.00
2.38
4.25
5.36
5.90
6.43
7.71
10.31
14.27
19.19
24.40
29.40
34.07
38.66
43.52
48.85
54.50
60.07
65.07
69.17
72.13
73.81
73.97
72.31
68.48
62.33
53.97
43.88
32.78
21.48
10.59
0.42
-9.07
-18.01
-26.42
-34.15
-40.75
-45.74
-48.79
-49.84
-49.18
-47.47
-45.71
-45.13
-46.85
-51.46
-58.69
-67.36
-75.69
-81.95
-85.03
-84.70
-81.45
-75.99
-68.91
-60.55
-51.20
-41.43
-32.06
-23.96
-17.56
-12.53
-7.94
-2.55
4.53
13.56
24.11
35.25
46.18
56.33
65.52
73.83
81.26
87.65
92.69
96.06
97.60
97.35
95.41
91.79
86.27
78.47
67.99
54.74
39.08
21.93
4.54
-11.78
-26.05
-37.85
-47.27
-54.72
-60.51
-64.73
-67.16
-67.45
-65.41
-61.13
-55.00
-47.63
-39.53
-31.11
-22.62
-14.36
-6.81
-0.70
3.13
4.08
2.06
-2.38
-8.16
-14.06
-19.02
-22.34
-23.88
-23.68
-21.99
-19.04
-15.03
-10.26
-5.10
-0.03
4.47
8.06
10.72
12.68
14.42
16.27
18.18
19.56
19.52
17.21
12.47
5.87
-1.37
-7.96
-13.15
-16.97
-20.05
-23.11
-26.54
-30.21
-33.67
-36.62
-39.08
-41.47
-44.31
-47.73
-51.34
-54.10
-54.85
-52.73
-47.62
-40.26
-31.97
-24.10
-17.56
-12.51
-8.56
-5.09
-1.69
1.68
4.79
7.32
9.20
10.63
11.98
13.62
15.59
17.62
19.23
19.97
19.71
18.65
17.28
16.06
15.31
14.99
14.76
14.23
13.16
11.57
9.75
8.07
6.75
5.77
4.92
3.87
2.44
0.60
-1.52
-3.72
-5.88
-7.85
-9.39
-10.12
-9.45
-6.87
-2.19
4.30
11.72
18.98
25.13
29.66
32.72
34.91
37.00
39.55
42.74
46.38
50.02
53.20
55.47
56.54
56.17
54.16
50.36
44.76
37.56
29.19
20.37
11.94
4.66
-0.97
-4.84
-7.25
-8.74
-9.91
-11.16
-12.66
-14.28
-15.80
-17.08
-18.13
-19.09
-20.07
-21.07
-21.95
-22.58
-23.06
-23.71
-25.01
-27.37
-30.71
-34.35
-37.13
-37.71
-35.20
-29.48
-21.35
-12.24
-3.77
2.87
7.24
9.59
10.66
11.25
11.84
12.61
13.44
14.23
15.07
16.17
17.75
19.77
21.90
23.63
24.52
24.46
23.69
22.69
21.85
21.29
20.84
20.12
18.86
17.03
14.86
12.79
11.19
10.21
9.70
9.29
8.64
7.60
6.30
5.03
4.10
3.61
3.35
2.94
1.92
0.12
-2.28
-4.82
-6.80
-7.57
-6.66
-3.83
0.92
7.39
15.18
23.73
32.34
40.34
47.19
52.58
56.62
59.67
62.22
64.78
67.55
70.46
73.21
75.43
76.90
77.57
77.52
76.75
75.10
72.19
67.59
61.11
52.75
42.86
31.94
20.66
9.84
0.37
-6.87
-11.32
-12.95
-12.40
-10.79
-9.42
-9.27
-10.81
-13.78
-17.54
-21.11
-23.61
-24.37
-23.18
-20.38
-16.77
-13.34
-10.92
-9.86
-9.87
-10.34
-10.68
-10.60
-10.33
-10.41
-11.42
-13.74
-17.38
-22.11
-27.63
-33.68
-40.20
-47.17
-54.49
-61.94
-69.13
-75.69
-81.36
-86.06
-89.82
-92.60
-94.34
-94.90
-94.34
-92.97
-91.39
-90.32
-90.36
-91.69
-94.01
-96.61
-98.63
-99.40
-98.63
-96.43
-93.17
-89.29
-85.02
-80.39
-75.18
-69.17
-62.38
-55.07
-47.80
-41.16
-35.66
-31.43
-28.26
-25.70
-23.15
-20.16
-16.37
-11.60
-5.82
0.89
8.35
16.20
23.97
31.18
37.41
42.52
46.66
50.21
53.66
57.36
61.34
65.39
69.02
71.70
73.04
72.76
70.88
67.53
62.94
57.44
51.27
44.70
37.94
31.21
24.81
19.04
14.12
10.10
6.78
3.76
0.57
-3.04
-7.00
-10.90
-14.11
-16.11
-16.70
-16.13
-14.99
-13.94
-13.46
-13.65
-14.32
-15.06
-15.46
-15.30
-14.51
-13.22
-11.58
-9.77
-8.03
-6.64
-5.97
-6.42
-8.26
-11.36
-15.08
-18.29
-19.60
-17.89
-12.71
-4.54
5.32
15.23
23.73
29.89
33.38
34.22
32.49
28.14
21.17
11.89
1.17
-9.53
-18.61
-24.80
-27.64
-27.65
-25.90
-23.56
-21.18
-18.56
-15.02
-10.10
-4.07
1.97
6.55
8.69
8.51
7.21
6.55
7.92
11.76
17.44
23.66
29.26
33.61
36.68
38.82
40.26
40.94
40.56
38.89
36.08
32.64
29.29
26.64
24.89
23.79
22.82
21.53
19.71
17.44
14.84
11.69
7.33
0.82
-8.61
-20.95
-35.18
-49.44
-61.69
-70.38
-74.98
-76.03
-74.65
-72.04
-68.92
-65.51
-61.66
-57.09
-51.69
-45.54
-38.73
-31.31
-23.23
-14.45
-5.12
4.31
13.13
20.65
26.42
30.56
33.68
36.77
40.65
45.68
51.52
57.16
61.41
63.28
62.42
59.27
54.80
50.24
46.59
44.34
43.37
42.96
42.21
40.31
36.99
32.80
28.92
26.81
27.54
31.15
36.44
41.08
42.32
37.93
27.15
11.03
-7.95
-26.70
-42.80
-55.04
-63.49
-69.00
-72.45
-74.34
-74.83
-74.03
-72.25
-69.94
-67.40
-64.60
-61.19
-56.89
-51.87
-46.76
-42.30
-38.92
-36.43
-34.16
-31.48
-28.04
-24.05
-19.96
-16.22
-13.07
-10.59
-8.84
-7.95
-8.11
-9.30
-11.16
-13.08
-14.42
-14.82
-14.48
-14.08
-14.58
-16.85
-21.38
-28.07
-36.19
-44.49
-51.40
-55.47
-55.71
-52.04
-45.39
-37.38
-29.76
-23.77
-19.68
-16.84
-14.16
-10.69
-6.15
-0.91
4.36
9.12
13.32
17.31
21.57
26.29
31.21
35.73
39.23
41.39
42.30
42.35
41.85
40.91
39.43
37.33
34.79
32.32
30.51
29.62
29.36
28.93
27.34
24.03
19.10
13.30
7.62
2.79
-1.01
-4.11
-7.02
-10.00
-12.96
-15.50
-17.04
-17.14
-15.48
-12.02
-6.85
-0.28
7.21
14.94
22.11
27.95
31.83
33.48
33.00
30.80
27.52
23.83
20.38
17.56
15.54
14.29
13.54
13.04
12.55
11.97
11.27
10.43
9.29
7.62
5.19
1.94
-1.91
-5.89
-9.46
-12.19
-13.91
-14.69
-14.68
-14.01
-12.63
-10.46
-7.51
-4.03
-0.53
2.26
3.71
3.51
1.84
-0.57
-2.68
-3.43
-2.15
1.33
6.58
12.82
19.18
24.92
29.57
32.90
34.76
35.15
34.15
32.01
29.17
26.20
23.62
21.80
20.88
20.72
21.05
21.52
21.91
22.10
22.07
21.79
21.16
20.05
18.35
16.12
13.58
11.10
8.96
7.23
5.71
4.05
1.91
-0.78
-3.82
-6.87
-9.62
-12.03
-14.39
-17.15
-20.71
-25.14
-30.01
-34.54
-37.82
-39.07
-37.89
-34.41
-29.07
-22.52
-15.49
-8.61
-2.43
2.69
6.53
9.08
10.54
11.23
11.53
11.76
12.14
12.73
13.46
14.18
14.65
14.74
14.39
13.68
12.88
12.19
11.71
11.28
10.57
9.20
6.94
3.85
0.19
-3.65
-7.33
-10.78
-14.05
-17.28
-20.56
-23.79
-26.82
-29.49
-31.76
-33.71
-35.35
-36.40
-36.22
-33.98
-29.02
-21.21
-11.21
-0.25
10.15
18.79
25.11
29.20
31.69
33.23
34.24
34.77
34.70
33.97
32.79
31.66
31.09
31.35
32.30
33.28
33.63
32.80
30.74
27.86
24.70
21.71
18.91
15.96
12.47
8.20
3.33
-1.68
-6.27
-10.08
-13.08
-15.55
-17.96
-20.64
-23.76
-27.28
-31.03
-34.81
-38.36
-41.33
-43.27
-43.60
-41.90
-38.02
-32.27
-25.29
-17.86
-10.62
-3.77
2.83
9.48
16.23
22.69
27.97
31.01
31.00
27.89
22.46
16.15
10.47
6.60
4.94
5.16
6.55
8.29
9.91
11.28
12.58
14.18
16.29
19.01
22.11
25.13
27.42
28.31
27.26
24.05
18.82
12.01
4.14
-4.38
-13.43
-23.02
-33.07
-43.23
-52.74
-60.63
-66.02
-68.38
-67.76
-64.66
-59.91
-54.32
-48.60
-43.28
-38.73
-35.25
-32.89
-31.52
-30.77
-30.15
-29.29
-28.11
-26.73
-25.34
-23.84
-21.66
-17.81
-11.29
-1.56
11.14
25.65
40.37
53.69
64.52
72.47
77.62
80.30
80.86
79.56
76.74
72.93
68.81
65.03
61.90
59.22
56.30
52.26
46.38
38.43
28.77
18.08
7.10
-3.58
-13.45
-21.76
-27.39
-28.84
-24.76
-14.41
1.97
23.32
48.25
75.41
103.76
132.19
159.17
182.72
200.77
212.00
216.44
215.43
211.04
205.16
198.86
192.28
185.02
176.53
166.22
153.35
136.81
115.45
88.57
56.58
21.08
-15.67
-51.62
-85.61
-117.35
-146.69
-172.86
-194.15
-208.46
-214.39
-212.09
-203.55
-191.76
-179.59
-168.67
-159.02
-149.54
-138.89
-126.34
-112.06
-96.89
-81.70
-67.03
-52.94
-39.29
-26.15
-14.03
-3.79
3.69
8.04
9.58
9.18
7.95
6.63
5.32
3.46
0.10
-5.60
-14.03
-24.82
-36.98
-49.12
-59.90
-68.49
-74.73
-79.19
-82.81
-86.43
-90.43
-94.44
-97.59
-98.77
-97.09
-92.25
-84.64
-75.29
-65.49
-56.51
-49.30
-44.34
-41.78
-41.45
-43.17
-46.68
-51.62
-57.42
-63.27
-68.25
-71.60
-72.99
-72.57
-70.81
-68.26
-65.35
-62.28
-59.15
-55.94
-52.65
-49.24
-45.58
-41.59
-37.35
-33.13
-29.36
-26.36
-24.14
-22.22
-19.76
-15.77
-9.42
-0.26
11.78
26.37
42.93
60.64
78.58
95.77
111.35
124.64
135.20
142.88
147.73
150.07
150.42
149.37
147.52
145.28
142.74
139.72
135.96
131.35
126.12
120.70
115.54
110.75
106.11
101.12
95.20
87.91
78.85
67.74
54.38
38.70
20.92
1.62
-18.33
-37.89
-56.08
-72.06
-85.21
-95.21
-102.08
-106.18
-108.21
-109.00
-109.25
-109.22
-108.68
-107.00
-103.43
-97.39
-88.72
-77.70
-65.18
-52.40
-40.76
-31.38
-24.61
-19.88
-15.88
-11.20
-5.01
2.58
10.61
17.99
24.21
29.80
36.24
45.32
58.34
75.63
96.35
118.90
141.33
161.93
179.47
193.46
204.16
212.40
219.37
226.18
233.54
241.46
249.16
254.99
256.68
251.65
237.67
213.58
180.00
139.58
96.49
55.37
19.96
-7.91
-28.62
-44.14
-56.94
-69.05
-81.51
-94.59
-108.29
-122.82
-138.69
-156.49
-176.46
-198.13
-220.26
-241.03
-258.45
-270.78
-277.00
-276.87
-271.06
-260.63
-246.92
-231.22
-214.51
-197.64
-181.16
-165.30
-149.89
-134.32
-117.88
-100.17
-81.56
-63.30
-47.10
-34.59
-26.62
-23.14
-23.27
-25.91
-30.14
-35.48
-41.88
-49.53
-58.63
-69.12
-80.63
-92.35
-103.13
-111.67
-116.79
-117.65
-114.00
-106.02
-94.32
-79.85
-63.70
-47.13
-31.33
-17.18
-4.93
5.86
16.11
26.79
38.41
50.76
62.88
73.47
81.46
86.46
89.07
90.67
93.00
97.53
104.93
114.89
126.36
138.04
148.93
158.62
167.34
175.61
183.83
192.11
200.10
207.21
212.78
216.24
217.26
215.59
211.02
203.27
191.98
176.79
157.57
134.46
107.97
78.97
48.66
18.37
-10.41
-36.22
-57.65
-73.62
-83.55
-87.63
-86.87
-82.89
-77.54
-72.29
-67.97
-64.74
-62.33
-60.47
-59.04
-58.07
-57.59
-57.34
-56.84
-55.58
-53.23
-49.80
-45.58
-40.91
-36.01
-30.93
-25.76
-20.76
-16.57
-14.05
-14.14
-17.61
-24.71
-35.13
-47.87
-61.30
-73.47
-82.52
-87.26
-87.54
-84.34
-79.39
-74.60
-71.36
-70.10
-70.28
-70.73
-70.26
-68.17
-64.40
-59.49
-54.28
-49.53
-45.82
-43.37
-42.09
-41.56
-41.06
-39.74
-36.70
-31.32
-23.44
-13.57
-2.85
7.29
15.51
20.98
23.63
24.01
22.96
21.23
19.27
17.28
15.54
14.62
15.37
18.67
24.95
33.94
44.68
55.77
65.88
74.08
79.89
83.21
84.02
82.31
78.07
71.49
63.06
53.55
43.79
34.36
25.42
16.80
8.23
-0.17
-7.72
-13.23
-15.41
-13.47
-7.48
1.54
11.96
22.04
30.52
36.83
41.03
43.61
45.13
46.02
46.58
46.94
47.30
47.86
48.78
50.13
51.69
53.03
53.59
52.89
50.77
47.33
42.96
38.08
33.05
28.05
23.10
18.21
13.46
9.02
5.07
1.59
-1.74
-5.51
-10.39
-16.70
-24.09
-31.46
-37.24
-39.93
-38.59
-33.33
-25.15
-15.68
-6.52
1.20
6.97
10.98
13.66
15.50
16.80
17.71
18.33
18.81
19.37
20.16
21.12
21.97
22.15
21.19
18.84
15.28
11.07
6.84
3.08
-0.10
-2.94
-5.75
-8.70
-11.68
-14.34
-16.32
-17.46
-17.96
-18.28
-18.93
-20.08
-21.38
-21.95
-20.63
-16.46
-9.03
1.32
13.58
26.44
38.65
49.30
57.86
64.13
68.15
70.08
70.37
69.70
69.01
69.25
71.08
74.62
79.41
84.46
88.68
91.15
91.34
89.18
84.91
78.86
71.27
62.35
52.14
40.85
28.75
16.24
3.78
-8.33
-20.01
-31.38
-42.64
-53.89
-65.03
-75.75
-85.51
-93.64
-99.37
-102.02
-101.05
-96.28
-88.00
-76.95
-64.27
-51.27
-39.17
-28.89
-20.97
-15.42
-11.83
-9.51
-7.62
-5.52
-2.91
0.14
3.22
5.99
8.32
10.41
12.74
15.75
19.70
24.52
29.77
34.68
38.14
38.84
35.57
27.71
15.64
0.87
-14.29
-27.50
-37.38
-44.13
-49.73
-57.21
-69.49
-88.11
-112.46
-139.79
-166.05
-187.20
-200.37
-204.53
-200.43
-190.02
-175.72
-159.80
-144.08
-129.89
-118.01
-108.63
-101.29
-94.87
-87.87
-78.76
-66.49
-50.79
-32.25
-12.10
8.14
26.95
43.06
55.54
63.94
68.46
70.01
70.02
70.00
70.94
72.85
74.73
75.06
72.48
66.50
57.65
47.20
36.66
27.15
19.29
13.19
8.66
5.40
2.99
0.82
-1.75
-5.23
-9.66
-14.44
-18.36
-19.97
-18.14
-12.47
-3.57
7.12
17.79
26.79
33.13
36.64
37.88
37.79
37.33
37.21
37.70
38.77
40.18
41.70
43.16
44.43
45.36
45.68
45.10
43.48
40.91
37.76
34.56
31.77
29.64
28.16
27.13
26.26
25.25
23.87
21.92
19.30
16.00
12.23
8.30
4.60
1.43
-1.24
-3.70
-6.43
-9.87
-14.12
-18.74
-22.85
-25.32
-25.18
-22.02
-16.19
-8.66
-0.76
6.35
12.03
16.25
19.45
22.10
24.49
26.56
28.06
28.81
28.80
28.30
27.60
26.88
26.11
25.02
23.35
21.02
18.18
15.23
12.61
10.57
9.07
7.79
6.37
4.54
2.32
-0.07
-2.34
-4.26
-5.88
-7.38
-9.04
-10.98
-13.15
-15.39
-17.56
-19.75
-22.19
-25.07
-28.30
-31.26
-32.98
-32.40
-28.91
-22.58
-14.27
-5.35
2.88
9.51
14.21
17.18
18.76
19.25
18.79
17.48
15.56
13.55
12.09
11.73
12.68
14.61
16.79
18.47
19.06
18.48
17.07
15.36
13.78
12.42
11.06
9.32
6.92
3.88
0.51
-2.74
-5.55
-7.82
-9.72
-11.64
-13.95
-16.93
-20.69
-25.14
-29.99
-34.69
-38.51
-40.56
-40.11
-36.81
-30.92
-23.40
-15.66
-9.12
-4.87
-3.20
-3.82
-5.86
-8.38
-10.66
-12.35
-13.55
-14.68
-16.21
-18.41
-21.14
-23.76
-25.33
-24.91
-21.93
-16.36
-8.77
0.05
9.34
18.55
27.38
35.52
42.48
47.63
50.42
50.68
48.73
45.38
41.46
37.65
34.16
30.79
27.21
23.10
18.58
14.16
10.69
9.09
9.97
13.39
18.82
25.29
31.72
37.15
41.02
43.08
43.32
41.79
38.50
33.64
27.49
20.59
13.56
6.94
1.04
-4.10
-8.52
-12.18
-14.88
-16.27
-16.03
-14.00
-10.33
-5.50
-0.19
4.76
8.53
10.36
9.67
6.13
-0.22
-8.98
-19.37
-30.36
-40.76
-49.56
-56.15
-60.44
-62.86
-64.00
-64.31
-63.74
-61.82
-57.89
-51.50
-42.80
-32.52
-21.79
-11.66
-2.74
4.92
11.66
17.85
23.68
28.94
33.13
35.80
36.69
35.96
34.07
31.50
28.64
25.55
22.05
17.88
12.84
6.92
0.25
-6.93
-14.34
-21.67
-28.64
-34.93
-40.22
-44.19
-46.59
-47.34
-46.68
-45.19
-43.72
-43.01
-43.35
-44.29
-44.77
-43.53
-39.58
-32.77
-23.87
-14.20
-5.24
1.97
7.00
9.93
11.13
11.01
9.82
7.82
5.38
3.02
1.41
1.10
2.30
4.75
7.94
11.37
15.00
19.32
25.18
33.37
44.21
57.37
72.00
87.11
101.91
115.96
129.02
140.81
150.79
158.39
163.06
164.63
163.28
159.33
152.95
143.99
132.16
117.38
100.14
81.66
63.61
47.39
33.43
20.92
7.90
-7.88
-28.05
-52.92
-81.12
-110.04
-136.55
-157.79
-171.86
-178.01
-176.51
-168.38
-155.02
-137.96
-118.69
-98.41
-77.85
-57.24
-36.72
-16.99
0.03
11.36
14.10
7.05
-8.04
-26.56
-42.86
-52.78
-55.57
-54.05
-52.88
-55.82
-63.89
-75.10
-85.93
-93.48
-96.73
-96.53
-94.40
-91.23
-86.78
-80.14
-70.55
-58.27
-44.63
-31.48
-20.31
-11.74
-5.41
-0.57
3.29
6.13
7.44
6.68
3.78
-0.63
-5.40
-9.28
-11.47
-11.87
-11.16
-10.38
-10.61
-12.37
-15.47
-19.02
-21.68
-22.18
-19.66
-13.79
-4.73
7.22
21.60
37.69
54.47
70.72
85.47
98.59
110.92
123.76
138.05
153.36
167.70
178.24
182.46
179.40
170.12
157.19
143.64
131.74
122.48
115.75
110.79
106.74
102.68
97.67
90.56
80.25
66.07
48.15
27.53
5.76
-15.79
-36.53
-56.86
-77.85
-100.43
-124.61
-148.76
-169.54
-182.29
-182.42
-167.00
-136.56
-95.82
-52.86
-16.97
4.47
8.37
-3.27
-24.62
-48.57
-69.43
-84.40
-93.44
-98.10
-99.95
-99.77
-97.47
-92.78
-85.79
-77.36
-68.67
-60.72
-53.69
-46.84
-38.85
-28.49
-15.24
0.51
17.65
34.92
51.39
66.80
81.28
95.09
108.01
119.38
128.27
134.08
137.10
138.64
140.74
145.33
153.20
163.41
173.21
178.82
176.60
164.27
141.51
109.93
72.34
31.80
-8.96
-47.91
-83.58
-114.88
-140.98
-161.36
-175.87
-184.77
-188.66
-188.30
-184.51
-178.14
-170.08
-161.18
-152.21
-143.67
-135.72
-128.23
-120.90
-113.51
-106.11
-99.05
-92.92
-88.27
-85.41
-84.21
-84.10
-84.19
-83.53
-81.34
-77.20
-71.21
-63.83
-55.85
-48.09
-41.18
-35.49
-31.08
-27.72
-25.05
-22.61
-19.87
-16.29
-11.41
-4.97
2.94
11.82
20.86
29.13
35.97
41.16
45.03
48.31
51.88
56.42
62.16
68.78
75.48
81.16
84.82
85.88
84.35
80.98
77.02
74.02
73.40
75.96
81.61
89.07
96.09
99.91
98.10
89.32
73.70
52.72
28.58
3.44
-21.13
-44.38
-65.96
-85.64
-102.85
-116.72
-126.33
-131.10
-131.04
-126.72
-119.13
-109.33
-98.19
-86.34
-74.20
-62.16
-50.71
-40.41
-31.85
-25.38
-21.08
-18.70
-17.77
-17.78
-18.32
-19.16
-20.14
-21.08
-21.70
-21.60
-20.51
-18.40
-15.60
-12.82
-10.68
-9.47
-8.82
-7.71
-4.96
0.36
8.45
18.68
29.92
40.93
50.81
59.14
65.95
71.43
75.76
79.04
81.33
82.83
83.89
84.99
86.56
88.79
91.55
94.43
96.99
98.93
100.22
101.05
101.57
101.78
101.37
99.81
96.61
91.55
84.78
76.78
68.09
59.10
49.90
40.33
30.10
18.99
6.97
-5.85
-19.05
-32.07
-44.14
-54.35
-61.82
-65.83
-66.05
-62.61
-56.08
-47.32
-37.28
-26.78
-16.44
-6.62
2.46
10.63
17.74
23.58
28.01
30.92
32.45
32.91
32.71
32.20
31.52
30.50
28.78
26.11
22.47
18.24
14.04
10.46
7.86
6.22
5.26
4.61
3.92
3.02
1.77
0.07
-2.26
-5.41
-9.58
-14.84
-21.18
-28.29
-35.61
-42.30
-47.30
-49.55
-48.27
-43.34
-35.26
-25.23
-14.71
-5.07
2.74
8.33
11.78
13.48
13.94
13.70
13.31
13.25
13.90
15.50
18.03
21.29
24.97
28.76
32.48
36.03
39.32
42.24
44.56
46.04
46.51
45.94
44.38
41.89
38.47
34.05
28.60
22.15
15.07
7.84
1.02
-4.97
-9.99
-14.12
-17.65
-20.90
-24.14
-27.62
-31.36
-35.22
-38.73
-41.10
-41.47
-39.15
-33.98
-26.42
-17.48
-8.34
-0.04
6.78
11.87
15.32
17.37
18.32
18.50
18.24
17.88
17.68
17.76
18.02
18.26
18.15
17.43
16.01
13.99
11.65
9.30
7.21
5.54
4.35
3.58
3.09
2.76
2.42
1.94
1.26
0.39
-0.54
-1.40
-2.14
-2.91
-4.06
-6.06
-9.25
-13.57
-18.37
-22.48
-24.59
-23.62
-19.23
-11.90
-2.83
6.57
15.02
21.70
26.26
28.68
29.06
27.58
24.56
20.50
16.13
12.30
9.72
8.76
9.33
10.91
12.73
14.05
14.44
13.82
12.47
10.86
9.28
7.84
6.35
4.50
2.10
-0.88
-4.23
-7.63
-10.87
-13.88
-16.78
-19.76
-22.93
-26.30
-29.75
-33.13
-36.30
-39.10
-41.23
-42.25
-41.63
-38.92
-34.04
-27.32
-19.55
-11.70
-4.67
0.87
4.67
6.78
7.41
6.78
5.09
2.50
-0.72
-4.16
-7.26
-9.45
-10.38
-10.08
-8.97
-7.60
-6.38
-5.38
-4.28
-2.60
0.00
3.50
7.49
11.39
14.73
17.28
19.05
20.06
20.18
19.12
16.50
12.17
6.35
-0.25
-6.63
-11.68
-14.52
-14.65
-12.12
-7.51
-1.74
4.18
9.39
13.33
15.82
16.95
16.93
15.95
14.14
11.71
8.94
6.29
4.29
3.35
3.61
4.83
6.47
7.93
8.74
8.71
7.88
6.46
4.66
2.61
0.31
-2.30
-5.24
-8.42
-11.72
-15.00
-18.17
-21.14
-23.73
-25.62
-26.33
-25.44
-22.77
-18.52
-13.29
-7.87
-3.06
0.60
2.90
3.81
3.53
2.27
0.28
-2.08
-4.35
-6.02
-6.71
-6.23
-4.70
-2.51
-0.20
1.71
2.79
2.81
1.72
-0.35
-3.09
-6.11
-9.02
-11.56
-13.62
-15.30
-16.75
-18.22
-19.88
-21.83
-24.03
-26.24
-28.08
-28.99
-28.41
-25.92
-21.43
-15.27
-8.11
-0.87
5.60
10.68
14.10
15.99
16.75
16.95
17.11
17.61
18.62
20.11
21.96
24.00
26.09
28.14
30.13
32.10
34.20
36.61
39.46
42.72
46.13
49.28
51.77
53.44
54.60
56.11
59.23
65.29
75.20
88.84
104.77
120.20
131.62
135.71
130.48
115.97
94.19
68.50
42.54
19.21
0.41
-13.03
-20.81
-22.89
-19.43
-10.98
1.47
16.53
32.89
49.57
66.15
82.50
98.40
113.32
126.32
136.40
142.82
145.30
144.09
139.75
132.91
124.09
113.68
101.98
89.40
76.52
64.03
52.70
42.98
34.89
27.93
21.22
13.86
5.21
-4.82
-15.83
-26.95
-37.19
-45.60
-51.51
-54.63
-55.11
-53.59
-50.96
-48.34
-46.68
-46.63
-48.15
-50.50
-52.24
-51.73
-47.69
-39.69
-28.41
-15.25
-1.89
10.13
19.52
25.04
25.41
19.52
6.86
-12.01
-35.41
-60.97
-86.35
-109.87
-130.61
-148.15
-162.28
-172.85
-179.99
-184.33
-186.88
-188.72
-190.35
-191.47
-191.17
-188.60
-183.44
-176.16
-167.66
-158.87
-150.39
-142.48
-135.41
-129.51
-125.09
-122.16
-120.08
-117.55
-113.10
-105.55
-94.45
-80.25
-63.89
-46.55
-29.36
-13.19
1.28
13.78
24.43
33.73
42.31
50.66
58.76
66.07
71.75
75.01
75.55
73.54
69.53
64.10
57.73
50.75
43.49
36.30
29.55
23.53
18.22
13.47
9.04
4.87
1.17
-1.64
-3.12
-3.11
-1.77
0.41
2.75
4.56
5.38
4.95
3.36
0.87
-2.19
-5.41
-8.46
-10.95
-12.46
-12.58
-11.04
-7.89
-3.59
1.13
5.44
8.72
10.78
11.78
12.11
12.18
12.19
12.22
12.22
12.18
12.13
12.10
12.11
12.09
11.85
11.18
9.84
7.57
4.27
-0.04
-5.05
-10.18
-14.64
-17.60
-18.46
-17.11
-13.92
-9.71
-5.37
-1.59
1.22
3.01
3.92
4.15
3.92
3.43
2.86
2.46
2.38
2.67
3.23
3.84
4.33
4.61
4.73
4.90
5.29
5.92
6.62
6.97
6.55
5.03
2.32
-1.36
-5.65
-10.09
-14.22
-17.68
-20.25
-21.85
-22.65
-22.96
-23.21
-23.79
-24.83
-26.13
-27.19
-27.39
-26.30
-23.87
-20.43
-16.64
-13.18
-10.58
-9.05
-8.53
-8.81
-9.63
-10.79
-12.18
-13.69
-15.18
-16.49
-17.39
-17.76
-17.59
-16.99
-16.18
-15.34
-14.57
-13.87
-13.19
-12.47
-11.75
-11.11
-10.70
-10.60
-10.83
-11.30
-11.77
-12.01
-11.82
-11.12
-10.09
-9.08
-8.54
-8.91
-10.39
-12.88
-15.96
-18.94
-21.08
-21.75
-20.57
-17.54
-13.01
-7.52
-1.75
3.74
8.52
12.41
15.44
17.63
19.06
19.79
19.79
19.18
18.10
16.82
15.66
14.83
14.42
14.33
14.30
14.05
13.35
12.14
10.55
8.82
7.19
5.79
4.56
3.32
1.92
0.31
-1.32
-2.71
-3.63
-4.03
-4.09
-4.12
-4.40
-5.14
-6.35
-8.04
-10.16
-12.59
-15.17
-17.61
-19.49
-20.46
-20.18
-18.49
-15.39
-11.01
-5.69
0.00
5.36
9.60
12.17
12.95
12.27
10.86
9.58
9.13
9.89
11.80
14.32
16.59
17.41
15.51
9.85
-0.04
-13.69
-29.72
-46.16
-61.01
-72.96
-81.58
-87.27
-90.74
-92.34
-91.81
-88.31
-81.03
-69.90
-55.85
-40.79
-26.95
-16.05
-8.74
-4.50
-2.07
-0.18
1.90
4.20
6.26
7.61
8.11
8.07
8.04
8.46
9.38
10.50
11.33
11.52
11.08
10.31
9.68
9.54
10.04
11.02
12.25
13.52
14.83
16.31
18.14
20.33
22.54
24.20
24.68
23.56
20.82
16.76
11.79
6.19
-0.07
-7.13
-14.98
-23.15
-30.66
-36.24
-38.78
-37.74
-33.38
-26.54
-18.32
-9.72
-1.38
6.30
13.05
18.63
22.69
24.96
25.39
24.22
22.08
19.81
18.25
18.08
19.45
22.03
24.99
27.24
27.75
25.69
20.67
12.65
1.89
-11.12
-25.71
-41.02
-56.12
-70.07
-82.19
-92.22
-100.50
-107.84
-115.19
-123.16
-131.51
-139.04
-143.98
-144.69
-140.47
-132.10
-121.50
-111.03
-102.30
-95.48
-89.25
-81.44
-70.19
-54.71
-35.63
-14.55
6.54
25.82
41.68
52.73
58.01
57.52
52.95
47.90
46.93
53.88
69.84
92.19
115.23
132.36
138.80
133.30
118.14
97.75
76.44
57.03
40.45
26.35
14.26
3.91
-4.72
-11.85
-18.36
-25.40
-33.96
-44.05
-54.39
-62.72
-66.67
-64.73
-56.99
-45.10
-31.64
-19.19
-9.42
-2.68
1.83
5.44
9.31
13.99
19.34
24.80
29.89
34.44
38.62
42.76
47.01
51.25
55.08
57.98
59.70
60.24
59.92
59.21
58.38
57.47
56.16
53.99
50.62
46.03
40.61
34.97
29.68
24.85
20.13
14.82
8.16
-0.00
-9.09
-17.70
-24.01
-26.46
-24.29
-17.79
-8.21
2.81
13.78
23.72
32.21
39.23
44.80
48.83
51.24
52.12
51.97
51.58
51.78
53.07
55.37
58.12
60.53
62.08
62.62
62.40
61.81
61.04
60.03
58.45
55.87
52.12
47.26
41.67
35.88
30.34
25.31
20.77
16.45
11.89
6.65
0.39
-6.89
-14.80
-22.50
-28.85
-32.57
-32.65
-28.68
-21.04
-10.96
-0.17
9.51
16.80
21.23
23.16
23.47
23.07
22.60
22.30
22.13
22.10
22.25
22.84
24.06
25.93
28.17
30.29
31.66
31.86
30.69
28.26
24.92
21.02
16.87
12.61
8.26
3.74
-0.95
-5.79
-10.73
-15.80
-21.19
-27.11
-33.62
-40.30
-46.13
-49.66
-49.48
-44.81
-35.91
-24.04
-11.19
0.70
10.23
16.84
20.74
22.56
23.00
22.60
21.72
20.68
19.81
19.47
19.99
21.48
23.78
26.46
28.91
30.48
30.75
29.43
26.49
22.11
16.55
10.22
3.53
-3.10
-9.30
-14.84
-19.65
-23.87
-27.89
-32.24
-37.40
-43.42
-49.79
-55.23
-58.10
-56.88
-50.88
-40.62
-27.74
-14.42
-2.60
6.65
13.24
17.83
21.14
23.68
25.60
26.78
27.25
27.32
27.50
28.44
30.55
33.91
38.33
43.39
48.77
54.21
59.52
64.47
68.63
71.39
72.10
70.31
65.98
59.59
51.99
44.18
37.04
30.97
25.83
20.86
14.95
7.11
-3.12
-15.17
-27.46
-37.65
-43.41
-43.31
-37.33
-26.99
-14.84
-3.57
4.73
9.05
9.48
6.77
2.04
-3.49
-8.60
-12.15
-13.16
-11.14
-6.26
0.74
8.76
16.93
24.84
32.59
40.40
48.07
54.66
58.68
58.68
54.06
45.45
34.65
23.84
14.68
7.60
1.80
-4.24
-11.82
-21.31
-31.89
-41.86
-49.38
-53.05
-52.33
-47.51
-39.40
-29.12
-17.86
-6.76
3.13
10.95
16.17
18.62
18.73
17.38
15.79
15.17
16.33
19.37
23.70
28.21
31.75
33.50
33.24
31.31
28.36
24.99
21.52
17.93
14.03
9.64
4.72
-0.55
-5.91
-11.06
-15.84
-20.20
-24.28
-28.36
-32.92
-38.47
-45.34
-53.41
-61.76
-68.89
-72.92
-72.28
-66.33
-55.65
-41.99
-27.60
-14.54
-4.06
3.68
9.32
13.81
17.88
21.77
25.27
28.05
29.98
31.30
32.53
34.20
36.49
39.11
41.47
42.90
43.04
41.92
39.93
37.54
35.12
32.82
30.49
27.94
24.94
21.46
17.64
13.78
10.18
7.00
4.16
1.37
-1.83
-5.89
-11.12
-17.66
-25.44
-34.11
-42.99
-51.08
-57.06
-59.72
-58.24
-52.55
-43.52
-32.58
-21.42
-11.43
-3.37
2.59
6.74
9.50
11.33
12.59
13.60
14.71
16.15
18.03
20.22
22.35
24.02
24.85
24.75
23.88
22.61
21.37
20.38
19.60
18.69
17.17
14.70
11.09
6.56
1.57
-3.37
-7.77
-11.48
-14.67
-17.82
-21.60
-26.55
-32.81
-39.91
-46.71
-51.63
-53.23
-50.63
-43.91
-34.11
-22.82
-11.71
-2.04
5.57
11.09
14.89
17.44
19.21
20.55
21.73
22.96
24.32
25.82
27.42
28.93
30.20
31.11
31.52
31.45
30.91
29.92
28.52
26.75
24.68
22.44
20.14
17.84
15.52
13.02
10.13
6.72
2.79
-1.44
-5.66
-9.61
-13.14
-16.38
-19.62
-23.28
-27.77
-33.28
-39.68
-46.38
-52.38
-56.46
-57.50
-54.90
-48.74
-39.86
-29.55
-19.17
-9.79
-2.06
3.86
8.15
11.18
13.35
15.07
16.60
18.16
19.79
21.41
22.95
24.33
25.52
26.60
27.59
28.44
28.98
28.96
28.18
26.66
24.58
22.29
20.08
18.05
16.04
13.81
11.14
8.03
4.67
1.35
-1.71
-4.48
-7.09
-9.76
-12.63
-15.77
-19.19
-22.92
-27.02
-31.51
-36.16
-40.50
-43.72
-44.97
-43.56
-39.29
-32.53
-24.23
-15.62
-7.92
-1.97
1.89
3.84
4.40
4.19
3.72
3.34
3.24
3.47
4.10
5.16
6.64
8.45
10.39
12.20
13.59
14.39
14.52
14.03
13.03
11.61
9.80
7.66
5.17
2.42
-0.43
-3.17
-5.69
-7.97
-10.16
-12.59
-15.64
-19.52
-24.10
-28.85
-32.84
-35.00
-34.55
-31.20
-25.37
-18.07
-10.48
-3.68
1.65
5.32
7.43
8.26
8.12
7.25
5.98
4.71
3.88
3.86
4.80
6.55
8.62
10.46
11.57
11.78
11.25
10.37
9.54
8.97
8.54
7.89
6.69
4.77
2.22
-0.64
-3.47
-6.03
-8.25
-10.21
-12.09
-14.10
-16.45
-19.31
-22.72
-26.53
-30.26
-33.13
-34.24
-32.92
-28.97
-22.85
-15.54
-8.24
-2.02
2.53
5.34
6.79
7.47
7.90
8.45
9.17
9.98
10.74
11.41
12.11
12.96
14.03
15.24
16.34
17.02
17.08
16.48
15.44
14.23
13.09
12.04
10.95
9.57
7.77
5.59
3.33
1.32
-0.19
-1.19
-1.93
-2.90
-4.53
-7.21
-10.98
-15.54
-20.27
-24.27
-26.70
-27.00
-25.07
-21.29
-16.36
-11.09
-6.22
-2.22
0.61
2.18
2.57
2.01
0.85
-0.49
-1.60
-2.19
-2.14
-1.49
-0.40
0.95
2.31
3.54
4.47
5.04
5.27
5.11
4.58
3.57
2.04
0.01
-2.40
-4.96
-7.45
-9.78
-11.93
-13.98
-16.03
-18.13
-20.35
-22.79
-25.56
-28.69
-31.93
-34.69
-36.16
-35.53
-32.40
-27.03
-20.33
-13.56
-7.86
-3.81
-1.39
-0.08
0.70
1.36
1.95
2.28
2.21
1.76
1.16
0.69
0.57
0.76
1.06
1.14
0.74
-0.25
-1.78
-3.69
-5.69
-7.53
-8.98
-9.86
-10.18
-10.00
-9.47
-8.75
-8.04
-7.66
-8.04
-9.59
-12.41
-16.04
-19.43
-21.23
-20.33
-16.36
-9.97
-2.54
4.36
9.58
12.68
13.92
13.88
13.11
11.88
10.27
8.31
6.21
4.41
3.39
3.58
5.08
7.59
10.52
13.07
14.59
14.71
13.41
10.99
7.85
4.35
0.71
-2.95
-6.58
-10.08
-13.41
-16.63
-19.94
-23.64
-27.84
-32.31
-36.26
-38.55
-38.04
-34.12
-26.98
-17.70
-7.84
1.10
8.13
13.01
16.07
17.89
18.94
19.44
19.41
18.86
17.93
16.94
16.26
16.11
16.45
16.99
17.32
17.12
16.28
14.97
13.46
11.98
10.64
9.38
8.07
6.66
5.17
3.68
2.29
0.92
-0.68
-2.87
-5.94
-9.80
-13.92
-17.32
-18.91
-17.91
-14.18
-8.39
-1.76
4.34
8.88
11.44
12.23
11.82
10.80
9.64
8.58
7.83
7.54
7.88
8.95
10.64
12.60
14.39
15.51
15.70
14.89
13.23
10.97
8.31
5.35
2.13
-1.30
-4.84
-8.25
-11.25
-13.68
-15.61
-17.38
-19.53
-22.49
-26.38
-30.74
-34.63
-36.94
-36.72
-33.66
-28.13
-21.10
-13.70
-6.88
-1.12
3.57
7.45
10.86
14.04
17.02
19.73
22.08
24.06
25.75
27.29
28.82
30.36
31.77
32.82
33.23
32.88
31.76
30.09
28.11
25.99
23.77
21.29
18.44
15.13
11.47
7.66
3.85
-0.02
-4.16
-8.79
-13.86
-18.91
-23.03
-25.19
-24.65
-21.28
-15.70
-9.00
-2.40
3.17
7.27
9.88
11.22
11.53
11.06
10.02
8.71
7.54
6.83
6.81
7.51
8.75
10.22
11.59
12.57
13.00
12.76
11.89
10.46
8.64
6.60
4.52
2.58
0.91
-0.40
-1.41
-2.31
-3.46
-5.27
-7.97
-11.44
-15.03
-17.67
-18.21
-15.90
-10.73
-3.54
4.25
11.13
16.09
18.78
19.53
18.99
17.70
16.03
14.09
12.01
10.08
8.70
8.24
8.81
10.15
11.77
13.17
14.00
14.21
13.90
13.19
12.17
10.86
9.25
7.47
5.71
4.15
2.85
1.67
0.34
-1.42
-3.68
-6.17
-8.24
-9.01
-7.65
-3.68
2.77
10.93
19.59
27.49
33.71
37.91
40.28
41.28
41.39
40.88
39.82
38.28
36.41
34.50
32.88
31.73
30.97
30.31
29.37
27.86
25.72
23.05
20.09
17.05
14.04
11.01
7.83
4.33
0.40
-4.03
-8.94
-14.23
-19.73
-25.16
-30.10
-34.04
-36.44
-36.86
-35.15
-31.51
-26.57
-21.19
-16.31
-12.67
-10.67
-10.29
-11.18
-12.80
-14.58
-16.03
-16.78
-16.58
-15.30
-12.93
-9.65
-5.80
-1.91
1.45
3.88
5.28
5.86
6.00
6.04
6.01
5.65
4.49
2.09
-1.73
-6.81
-12.68
-18.65
-23.91
-27.68
-29.27
-28.27
-24.76
-19.30
-12.95
-6.91
-2.23
0.51
1.30
0.54
-1.15
-3.22
-5.32
-7.18
-8.54
-9.14
-8.73
-7.27
-5.06
-2.70
-0.93
-0.38
-1.34
-3.70
-7.04
-10.89
-14.81
-18.58
-22.04
-25.11
-27.75
-30.00
-32.03
-34.08
-36.29
-38.44
-39.83
-39.39
-36.04
-29.19
-19.13
-7.05
5.30
16.18
24.36
29.36
31.36
30.90
28.58
24.91
20.44
15.77
11.59
8.54
6.95
6.72
7.31
7.99
8.09
7.26
5.55
3.33
1.04
-0.97
-2.59
-3.99
-5.45
-7.20
-9.33
-11.73
-14.15
-16.25
-17.70
-18.23
-17.50
-15.33
-11.60
-6.45
-0.36
5.90
11.48
15.61
18.01
18.82
18.66
18.24
18.13
18.50
19.11
19.52
19.37
18.57
17.36
16.13
15.20
14.61
14.07
13.14
11.45
8.91
5.73
2.32
-0.93
-3.82
-6.35
-8.68
-10.96
-13.29
-15.68
-18.17
-20.88
-23.90
-27.14
-30.12
-32.05
-31.97
-29.23
-23.84
-16.53
-8.55
-1.19
4.71
8.83
11.46
13.09
14.14
14.90
15.44
15.77
15.97
16.15
16.44
16.83
17.24
17.46
17.34
16.78
15.78
14.41
12.79
10.94
8.85
6.46
3.73
0.72
-2.36
-5.23
-7.59
-9.26
-10.32
-11.07
-12.02
-13.74
-16.59
-20.56
-25.15
-29.40
-32.23
-32.77
-30.69
-26.35
-20.67
-14.75
-9.53
-5.47
-2.53
-0.37
1.41
3.14
4.93
6.84
8.91
11.20
13.78
16.58
19.36
21.65
23.00
23.11
22.00
19.98
17.44
14.64
11.66
8.36
4.68
0.76
-2.97
-6.00
-7.94
-8.75
-8.72
-8.37
-8.18
-8.49
-9.45
-11.08
-13.24
-15.58
-17.54
-18.35
-17.34
-14.21
-9.22
-3.12
3.10
8.56
12.78
15.69
17.50
18.54
19.08
19.29
19.25
19.01
18.67
18.25
17.76
17.19
16.49
15.64
14.61
13.41
12.04
10.50
8.79
6.99
5.24
3.69
2.48
1.68
1.22
0.94
0.55
-0.08
-1.04
-2.27
-3.68
-5.30
-7.27
-9.87
-13.28
-17.38
-21.68
-25.32
-27.42
-27.32
-24.89
-20.59
-15.28
-9.93
-5.26
-1.60
1.10
3.07
4.50
5.48
5.98
6.03
5.88
5.88
6.45
7.82
9.86
12.18
14.20
15.51
15.98
15.76
15.18
14.47
13.71
12.82
11.72
10.48
9.33
8.53
8.20
8.17
8.13
7.67
6.59
4.91
2.90
0.85
-1.06
-2.90
-5.00
-7.74
-11.39
-15.85
-20.55
-24.59
-27.05
-27.25
-25.14
-21.19
-16.33
-11.46
-7.18
-3.76
-1.12
0.82
2.11
2.66
2.45
1.60
0.48
-0.36
-0.45
0.52
2.43
4.76
6.81
7.82
7.36
5.44
2.46
-0.88
-3.93
-6.24
-7.53
-7.68
-6.57
-4.23
-0.87
2.95
6.47
9.01
10.23
10.35
10.01
9.90
10.50
11.79
13.44
14.98
16.09
16.73
16.92
16.69
15.83
14.04
11.10
6.94
1.95
-3.34
-8.30
-12.41
-15.40
-17.17
-17.69
-16.91
-14.73
-11.09
-6.20
-0.63
4.68
8.61
10.20
8.97
5.00
-0.95
-7.81
-14.33
-19.51
-22.77
-23.94
-23.24
-21.12
-18.09
-14.73
-11.63
-9.40
-8.45
-8.81
-10.03
-11.10
-10.85
-8.36
-3.32
3.70
11.42
18.30
23.07
25.06
24.36
21.51
17.27
12.27
6.93
1.45
-3.99
-9.23
-13.99
-18.08
-21.45
-24.29
-27.01
-30.09
-33.80
-38.06
-42.37
-45.99
-48.17
-48.54
-47.19
-44.73
-42.01
-39.82
-38.58
-38.29
-38.47
-38.50
-37.78
-35.91
-32.81
-28.59
-23.48
-17.69
-11.49
-5.18
0.85
6.07
9.99
12.22
12.73
11.77
9.84
7.52
5.22
3.11
1.23
-0.47
-2.01
-3.35
-4.46
-5.33
-5.96
-6.37
-6.61
-6.70
-6.68
-6.58
-6.43
-6.21
-5.86
-5.32
-4.59
-3.75
-2.91
-2.14
-1.47
-0.87
-0.27
0.33
1.02
1.91
3.31
5.54
8.86
13.32
18.63
24.26
29.62
34.27
38.02
40.95
43.28
45.14
46.55
47.41
47.57
47.10
46.21
45.30
44.75
44.65
44.69
44.19
42.33
38.62
33.09
26.41
19.60
13.57
8.78
5.09
2.01
-0.93
-3.84
-6.40
-8.05
-8.39
-7.52
-6.11
-5.27
-6.10
-9.45
-15.67
-24.57
-35.49
-47.37
-58.85
-68.47
-74.87
-77.21
-75.43
-70.31
-63.30
-55.99
-49.65
-44.90
-41.65
-39.40
-37.60
-35.80
-33.83
-31.60
-29.10
-26.29
-23.24
-20.06
-16.93
-14.06
-11.57
-9.50
-7.83
-6.56
-5.65
-5.02
-4.57
-4.14
-3.61
-2.96
-2.22
-1.56
-1.06
-0.79
-0.83
-1.24
-2.12
-3.47
-5.13
-6.66
-7.44
-6.83
-4.42
-0.19
5.42
11.67
17.72
22.82
26.53
28.74
29.66
29.70
29.34
28.91
28.59
28.37
28.14
27.89
27.62
27.44
27.41
27.47
27.48
27.18
26.47
25.36
23.96
22.41
20.76
18.91
16.75
14.20
11.32
8.36
5.61
3.32
1.61
0.40
-0.63
-1.90
-3.87
-6.78
-10.53
-14.59
-18.10
-20.16
-20.15
-17.91
-13.81
-8.60
-3.10
1.96
6.09
9.06
10.86
11.56
11.35
10.53
9.49
8.71
8.55
9.20
10.58
12.41
14.27
15.79
16.76
17.09
16.86
16.19
15.18
13.91
12.42
10.73
8.86
6.86
4.82
2.82
0.93
-0.84
-2.52
-4.21
-6.04
-8.10
-10.51
-13.25
-16.17
-18.94
-20.96
-21.56
-20.12
-16.33
-10.42
-3.08
4.64
11.65
17.15
20.77
22.58
22.93
22.27
21.00
19.43
17.78
16.30
15.22
14.66
14.63
14.89
15.10
14.89
14.09
12.77
11.22
9.77
8.64
7.81
7.06
6.09
4.59
2.50
-0.06
-2.80
-5.33
-7.38
-8.80
-9.72
-10.39
-11.21
-12.48
-14.35
-16.70
-19.18
-21.26
-22.32
-21.87
-19.64
-15.65
-10.30
-4.25
1.68
6.73
10.40
12.53
13.31
13.11
12.35
11.33
10.26
9.35
8.82
8.90
9.75
11.27
13.11
14.78
15.87
16.15
15.68
14.66
13.31
11.79
10.19
8.54
6.95
5.55
4.46
3.81
3.65
3.99
4.79
5.92
7.17
8.22
8.69
8.40
7.40
6.10
5.14
5.17
6.60
9.40
13.10
16.88
19.93
21.68
21.98
21.02
19.25
17.07
14.68
12.18
9.58
7.04
4.83
3.23
2.46
2.41
2.69
2.79
2.22
0.82
-1.22
-3.53
-5.70
-7.53
-9.07
-10.45
-11.78
-12.98
-13.83
-14.17
-14.03
-13.74
-13.78
-14.59
-16.16
-18.04
-19.40
-19.33
-17.22
-12.98
-7.13
-0.54
5.84
11.22
15.21
17.74
18.92
18.95
17.98
16.22
13.98
11.71
9.92
9.04
9.22
10.23
11.59
12.73
13.26
13.03
12.11
10.66
8.73
6.31
3.40
0.15
-3.06
-5.71
-7.28
-7.51
-6.50
-4.74
-2.95
-1.85
-1.90
-3.11
-5.00
-6.71
-7.36
-6.31
-3.50
0.55
4.94
8.76
11.36
12.61
12.71
12.02
10.85
9.35
7.58
5.60
3.49
1.39
-0.64
-2.66
-4.84
-7.23
-9.69
-11.72
-12.59
-11.62
-8.51
-3.62
2.09
7.34
11.01
12.51
11.92
9.87
7.16
4.45
1.97
-0.33
-2.71
-5.32
-8.17
-11.08
-13.76
-15.95
-17.43
-18.06
-17.82
-16.82
-15.36
-13.86
-12.81
-12.59
-13.36
-15.03
-17.29
-19.70
-21.88
-23.56
-24.71
-25.45
-25.99
-26.47
-26.81
-26.70
-25.66
-23.33
-19.58
-14.74
-9.40
-4.34
-0.20
2.65
4.12
4.39
3.76
2.57
1.21
-0.02
-0.89
-1.36
-1.65
-2.15
-3.27
-5.27
-7.97
-10.79
-12.90
-13.48
-12.07
-8.71
-4.00
1.19
5.93
9.56
11.79
12.71
12.65
12.00
11.09
10.02
8.69
6.87
4.25
0.61
-4.06
-9.62
-15.73
-22.02
-28.12
-33.68
-38.41
-42.01
-44.26
-45.06
-44.50
-42.99
-41.16
-39.67
-39.06
-39.51
-40.83
-42.52
-43.92
-44.37
-43.32
-40.41
-35.53
-28.84
-20.81
-12.14
-3.62
4.04
10.33
15.05
18.24
20.19
21.31
22.01
22.69
23.55
24.60
25.71
26.68
27.37
27.72
27.78
27.61
27.25
26.70
25.90
24.84
23.46
21.71
19.53
16.86
13.70
10.16
6.48
2.92
-0.36
-3.39
-6.38
-9.64
-13.35
-17.44
-21.45
-24.70
-26.45
-26.17
-23.79
-19.71
-14.69
-9.68
-5.49
-2.59
-1.06
-0.60
-0.69
-0.81
-0.59
0.10
1.16
2.48
3.89
5.38
6.95
8.59
10.14
11.39
12.12
12.28
12.04
11.69
11.52
11.57
11.64
11.34
10.39
8.76
6.73
4.76
3.28
2.41
1.95
1.41
0.28
-1.73
-4.56
-7.72
-10.44
-11.89
-11.43
-8.78
-4.19
1.71
8.02
13.85
18.54
21.75
23.47
23.87
23.25
21.97
20.32
18.54
16.78
15.04
13.24
11.26
9.07
6.77
4.54
2.60
1.08
-0.11
-1.15
-2.32
-3.79
-5.61
-7.68
-9.81
-11.88
-13.76
-15.44
-16.88
-18.11
-19.13
-20.01
-20.81
-21.50
-21.92
-21.69
-20.30
-17.35
-12.71
-6.66
0.12
6.76
12.48
16.77
19.49
20.80
20.99
20.42
19.33
17.87
16.14
14.23
12.25
10.30
8.43
6.62
4.76
2.79
0.69
-1.41
-3.31
-4.86
-6.01
-6.85
-7.56
-8.29
-9.08
-9.85
-10.39
-10.44
-9.83
-8.48
-6.54
-4.34
-2.44
-1.43
-1.81
-3.69
-6.76
-10.26
-13.12
-14.33
-13.32
-10.16
-5.51
-0.40
4.22
7.81
10.38
12.36
14.33
16.74
19.72
23.09
26.50
29.62
32.22
34.15
35.31
35.56
34.79
33.00
30.35
27.16
23.84
20.73
17.95
15.44
12.93
10.21
7.17
3.89
0.58
-2.55
-5.33
-7.75
-9.87
-11.78
-13.62
-15.54
-17.77
-20.56
-24.12
-28.41
-33.02
-37.14
-39.75
-39.94
-37.24
-31.82
-24.47
-16.34
-8.58
-2.01
2.97
6.35
8.37
9.32
9.53
9.28
8.81
8.39
8.24
8.49
9.23
10.35
11.65
12.85
13.69
13.96
13.59
12.57
10.94
8.73
5.99
2.74
-0.82
-4.38
-7.49
-9.75
-10.96
-11.22
-10.97
-10.84
-11.40
-12.94
-15.26
-17.75
-19.51
-19.64
-17.58
-13.29
-7.25
-0.32
6.59
12.76
17.80
21.65
24.40
26.19
27.09
27.18
26.62
25.66
24.63
23.84
23.41
23.27
23.15
22.64
21.49
19.62
17.21
14.58
12.05
9.70
7.39
4.82
1.74
-1.84
-5.63
-9.16
-12.01
-14.03
-15.46
-16.75
-18.43
-20.83
-23.99
-27.59
-31.06
-33.68
-34.76
-33.70
-30.18
-24.25
-16.44
-7.67
0.96
8.40
13.98
17.54
19.37
20.03
20.05
19.79
19.35
18.71
17.88
16.97
16.22
15.81
15.77
15.93
15.98
15.59
14.56
12.87
10.65
8.12
5.48
2.85
0.32
-2.10
-4.40
-6.54
-8.43
-9.92
-10.83
-11.06
-10.65
-9.93
-9.42
-9.66
-10.99
-13.28
-15.85
-17.73
-17.91
-15.82
-11.43
-5.32
1.62
8.53
14.75
19.99
24.30
27.92
31.22
34.57
38.25
42.40
46.95
51.69
56.38
60.94
65.51
70.56
76.61
84.02
92.77
102.33
111.88
120.57
128.02
134.53
141.14
149.26
160.19
174.47
191.39
208.86
223.80
232.78
233.10
223.75
206.04
183.53
161.22
144.06
135.32
135.49
141.98
149.98
153.93
149.27
133.64
107.49
73.75
36.88
1.81
-27.14
-47.04
-56.60
-56.08
-47.01
-31.85
-13.72
3.78
16.94
22.51
18.52
4.86
-16.54
-42.33
-68.77
-92.93
-113.36
-129.93
-143.17
-153.47
-160.62
-164.06
-163.41
-158.96
-151.86
-143.73
-136.07
-129.76
-124.86
-120.78
-116.71
-111.97
-106.28
-99.72
-92.59
-85.30
-78.18
-71.44
-65.18
-59.46
-54.40
-50.18
-46.98
-44.91
-43.86
-43.61
-43.90
-44.70
-46.10
-48.22
-50.83
-53.24
-54.40
-53.36
-49.77
-44.13
-37.72
-32.09
-28.44
-27.03
-27.04
-26.68
-23.77
-16.46
-4.03
12.60
30.97
47.80
60.13
66.59
67.92
66.63
65.83
67.71
72.48
78.15
81.12
77.05
61.81
32.36
-12.20
-69.40
-132.58
-191.36
-234.00
-251.25
-240.03
-205.29
-158.76
-115.04
-86.66
-80.30
-95.47
-125.99
-162.95
-197.91
-224.59
-239.10
-239.30
-224.02
-193.40
-149.93
-99.41
-51.12
-15.69
-1.60
-11.53
-40.60
-77.86
-110.53
-129.02
-130.41
-118.65
-101.64
-87.09
-79.19
-77.73
-79.35
-80.07
-77.36
-70.88
-61.83
-51.75
-41.54
-31.36
-21.23
-11.52
-3.11
3.09
6.91
9.30
12.07
16.95
24.72
34.73
45.22
54.08
59.71
61.49
59.73
55.38
49.59
43.50
38.10
34.08
31.64
30.38
29.34
27.37
23.61
17.92
10.86
3.51
-3.09
-8.41
-12.60
-16.42
-20.78
-26.24
-32.64
-39.08
-44.15
-46.51
-45.39
-40.85
-33.76
-25.43
-17.15
-9.79
-3.68
1.21
5.07
8.01
9.99
11.00
11.18
10.91
10.72
11.09
12.19
13.91
15.82
17.46
18.49
18.78
18.36
17.29
15.55
13.04
9.65
5.27
-0.17
-6.72
-14.39
-23.02
-32.14
-40.96
-48.57
-54.21
-57.48
-58.53
-57.92
-56.40
-54.75
-53.58
-53.26
-53.90
-55.16
-56.30
-56.16
-53.45
-47.15
-36.82
-22.73
-5.62
13.79
35.16
58.61
84.55
113.18
144.23
176.92
210.21
243.13
274.88
304.72
331.67
354.42
371.52
381.87
385.11
381.75
372.76
359.19
341.81
321.13
297.68
272.36
246.36
220.92
196.93
174.63
153.66
133.39
113.31
93.26
73.46
54.24
35.86
18.40
1.83
-13.80
-28.33
-41.44
-52.92
-62.79
-71.33
-78.88
-85.57
-91.01
-94.47
-95.06
-92.32
-86.64
-79.29
-72.24
-67.31
-65.55
-66.69
-69.05
-70.03
-66.79
-57.17
-40.47
-17.93
7.17
29.93
44.89
47.59
36.08
11.98
-19.66
-51.85
-77.88
-93.46
-97.86
-93.47
-84.45
-74.88
-67.53
-63.53
-62.76
-64.52
-68.09
-72.90
-78.45
-84.15
-89.41
-93.75
-96.98
-99.28
-101.11
-102.96
-105.23
-107.96
-110.94
-113.84
-116.38
-118.41
-119.96
-120.96
-121.21
-120.28
-117.63
-112.95
-106.24
-97.94
-88.73
-79.28
-70.10
-61.45
-53.44
-46.19
-39.82
-34.45
-30.02
-26.26
-22.73
-18.99
-14.86
-10.47
-6.23
-2.64
-0.12
1.09
0.88
-0.70
-3.34
-6.43
-9.07
-10.16
-8.93
-5.21
0.29
6.12
10.59
12.23
10.35
5.08
-2.77
-12.11
-21.89
-31.39
-40.25
-48.47
-56.27
-64.02
-71.99
-80.09
-87.66
-93.45
-95.90
-93.56
-85.65
-72.34
-54.80
-34.86
-14.48
4.65
21.43
35.40
46.56
55.22
61.80
66.71
70.26
72.75
74.41
75.49
76.23
76.81
77.29
77.54
77.37
76.55
74.94
72.58
69.61
66.21
62.58
58.79
54.86
50.69
46.20
41.33
36.13
30.75
25.42
20.30
15.50
10.95
6.45
1.75
-3.47
-9.51
-16.56
-24.55
-32.99
-40.85
-46.71
-49.14
-47.25
-41.10
-31.70
-20.71
-9.88
-0.42
7.07
12.60
16.46
18.91
20.16
20.37
19.88
19.16
18.69
18.77
19.34
20.07
20.53
20.37
19.51
18.11
16.46
14.80
13.20
11.48
9.35
6.58
3.11
-0.79
-4.67
-8.07
-10.75
-12.79
-14.61
-16.77
-19.83
-24.17
-29.88
-36.66
-43.77
-50.19
-54.67
-56.10
-53.91
-48.29
-40.22
-31.23
-22.93
-16.53
-12.58
-10.88
-10.83
-11.63
-12.65
-13.50
-13.98
-13.88
-13.01
-11.16
-8.29
-4.65
-0.74
2.84
5.68
7.70
9.08
10.13
10.95
11.38
11.06
9.66
7.10
3.65
-0.17
-3.77
-6.82
-9.30
-11.58
-14.30
-18.09
-23.34
-29.82
-36.61
-42.19
-44.89
-43.50
-37.73
-28.37
-17.03
-5.65
4.20
11.63
16.50
19.16
20.13
19.85
18.67
16.90
14.90
13.06
11.69
10.88
10.50
10.21
9.67
8.71
7.44
6.16
5.21
4.72
4.59
4.46
3.97
2.97
1.61
0.24
-0.82
-1.45
-1.91
-2.65
-4.10
-6.52
-9.81
-13.59
-17.29
-20.14
-21.39
-20.35
-16.60
-10.13
-1.44
8.63
19.15
29.36
38.86
47.55
55.45
62.64
69.21
75.33
81.32
87.50
94.01
100.63
106.73
111.44
113.88
113.46
109.88
103.21
93.78
82.13
69.13
55.80
43.23
32.33
23.70
17.49
13.48
11.20
10.04
9.23
7.92
5.22
0.43
-6.58
-15.20
-23.97
-30.99
-34.48
-33.41
-27.87
-19.03
-8.73
1.21
9.49
15.55
19.55
21.89
23.04
23.28
22.77
21.77
20.60
19.66
19.26
19.50
20.16
20.92
21.37
21.17
20.11
18.04
15.00
11.25
7.30
3.86
1.54
0.66
1.06
2.15
3.19
3.51
2.71
0.60
-2.87
-7.61
-13.29
-19.14
-23.86
-25.99
-24.30
-18.44
-9.09
2.17
13.44
23.14
30.48
35.54
38.94
41.49
43.82
46.25
48.90
51.81
55.11
58.87
63.05
67.38
71.40
74.52
76.34
76.66
75.58
73.39
70.46
67.17
63.82
60.66
57.90
55.64
53.84
52.28
50.52
47.98
44.02
38.24
30.68
22.04
13.55
6.74
2.95
2.83
6.12
11.72
18.00
23.37
26.65
27.36
25.57
21.72
16.40
10.16
3.57
-2.74
-7.99
-11.40
-12.44
-11.02
-7.73
-3.68
-0.19
1.64
1.21
-1.44
-5.98
-12.05
-19.50
-28.47
-39.09
-51.23
-64.34
-77.51
-89.74
-100.16
-108.19
-113.44
-115.57
-114.23
-109.14
-100.29
-88.18
-73.79
-58.43
-43.39
-29.64
-17.73
-7.75
0.45
7.08
12.27
16.11
18.66
20.12
20.84
21.23
21.66
22.27
22.90
23.21
22.81
21.45
19.23
16.48
13.69
11.28
9.48
8.21
7.11
5.68
3.36
-0.26
-5.33
-11.58
-18.28
-24.30
-28.38
-29.46
-27.04
-21.38
-13.43
-4.55
3.91
10.95
16.08
19.26
20.82
21.21
20.89
20.25
19.52
18.81
18.10
17.31
16.50
15.83
15.52
15.76
16.48
17.33
17.71
17.08
15.13
11.93
7.93
3.70
-0.27
-3.75
-6.82
-9.70
-12.61
-15.50
-18.05
-19.72
-19.91
-18.23
-14.65
-9.55
-3.58
2.59
8.42
13.60
18.00
21.57
24.25
25.93
26.55
26.15
24.98
23.40
21.84
20.61
19.86
19.44
19.04
18.19
16.41
13.35
8.94
3.34
-3.11
-9.98
-16.91
-23.63
-29.94
-35.62
-40.45
-44.30
-47.11
-48.93
-49.78
-49.35
-47.01
-41.86
-33.18
-20.94
-6.02
9.82
24.54
36.43
44.65
49.32
51.22
51.27
50.14
48.09
45.17
41.46
37.19
32.75
28.47
24.48
20.69
16.90
12.94
8.89
4.98
1.45
-1.63
-4.45
-7.52
-11.47
-16.80
-23.74
-32.16
-41.55
-51.35
-60.96
-69.96
-77.99
-84.53
-88.79
-89.64
-85.89
-76.78
-62.43
-44.10
-23.89
-4.26
12.70
25.70
34.49
39.55
41.79
42.16
41.46
40.30
39.15
38.33
38.01
38.16
38.58
38.92
38.87
38.28
37.27
36.21
35.52
35.49
36.11
37.01
37.54
37.07
35.14
31.72
27.16
22.03
16.98
12.43
8.52
5.03
1.52
-2.58
-7.84
-14.65
-23.11
-33.00
-43.65
-54.02
-62.85
-68.95
-71.59
-70.69
-66.90
-61.38
-55.35
-49.63
-44.36
-39.03
-32.78
-24.82
-14.77
-2.79
10.48
24.20
37.43
49.28
59.01
65.98
69.78
70.28
67.68
62.53
55.55
47.52
39.02
30.38
21.66
12.83
3.85
-5.16
-13.86
-21.73
-28.17
-32.69
-35.17
-35.92
-35.73
-35.63
-36.60
-39.17
-43.24
-48.04
-52.34
-54.82
-54.50
-50.89
-44.16
-35.06
-24.68
-14.27
-4.91
2.62
7.97
11.33
13.29
14.66
16.21
18.39
21.23
24.35
27.20
29.26
30.28
30.28
29.53
28.33
26.86
25.12
22.94
20.10
16.44
11.97
6.92
1.66
-3.38
-7.83
-11.53
-14.54
-17.20
-19.94
-23.15
-26.92
-30.99
-34.76
-37.38
-37.98
-35.87
-30.83
-23.14
-13.58
-3.35
6.24
14.01
19.19
21.55
21.42
19.46
16.52
13.35
10.50
8.34
7.06
6.79
7.56
9.26
11.53
13.84
15.49
15.90
14.73
12.04
8.29
4.08
0.01
-3.57
-6.59
-9.19
-11.61
-14.04
-16.60
-19.41
-22.53
-25.97
-29.57
-32.90
-35.25
-35.80
-33.93
-29.42
-22.67
-14.59
-6.38
0.79
6.12
9.29
10.43
9.96
8.43
6.34
4.10
1.99
0.21
-1.16
-2.02
-2.38
-2.28
-1.86
-1.37
-1.08
-1.21
-1.84
-2.89
-4.23
-5.69
-7.24
-8.92
-10.83
-12.97
-15.22
-17.35
-19.23
-20.93
-22.78
-25.25
-28.64
-32.78
-36.97
-40.07
-40.92
-38.82
-33.83
-26.71
-18.69
-10.96
-4.37
0.72
4.37
6.82
8.28
8.89
8.77
8.16
7.35
6.68
6.41
6.62
7.22
7.99
8.70
9.14
9.22
8.89
8.15
6.99
5.38
3.30
0.77
-2.10
-5.09
-7.95
-10.44
-12.48
-14.17
-15.77
-17.59
-19.72
-21.88
-23.44
-23.61
-21.78
-17.82
-12.18
-5.70
0.64
6.08
10.23
13.03
14.65
15.28
15.08
14.22
12.93
11.53
10.39
9.79
9.81
10.28
10.85
11.14
10.97
10.37
9.57
8.80
8.16
7.48
6.45
4.79
2.47
-0.26
-3.02
-5.42
-7.33
-8.86
-10.29
-11.94
-14.01
-16.52
-19.36
-22.25
-24.72
-26.13
-25.82
-23.31
-18.58
-12.14
-4.98
1.79
7.25
10.96
12.94
13.53
13.15
12.15
10.82
9.44
8.32
7.76
7.93
8.73
9.85
10.90
11.60
11.96
12.23
12.76
13.81
15.35
17.01
18.19
18.27
16.74
13.51
8.83
3.27
-2.40
-7.38
-11.01
-12.85
-12.87
-11.56
-9.88
-9.03
-10.11
-13.67
-19.48
-26.56
-33.60
-39.38
-43.17
-44.78
-44.40
-42.33
-38.87
-34.30
-29.10
-23.90
-19.50
-16.51
-15.20
-15.30
-16.14
-16.95
-17.18
-16.62
-15.44
-13.99
-12.57
-11.32
-10.18
-8.99
-7.66
-6.17
-4.68
-3.34
-2.31
-1.64
-1.31
-1.26
-1.38
-1.58
-1.79
-1.96
-2.14
-2.51
-3.31
-4.71
-6.69
-8.97
-11.04
-12.36
-12.60
-11.65
-9.75
-7.23
-4.44
-1.69
0.85
2.97
4.57
5.54
5.96
5.96
5.82
5.76
5.88
6.20
6.57
6.85
6.96
6.88
6.68
6.46
6.30
6.29
6.36
6.41
6.29
5.82
4.88
3.48
1.72
-0.18
-1.93
-3.34
-4.36
-5.09
-5.87
-7.00
-8.69
-10.88
-13.16
-14.91
-15.41
-14.15
-10.94
-6.03
-0.08
6.05
11.52
15.74
18.50
19.90
20.25
19.87
18.99
17.75
16.26
14.74
13.46
12.69
12.59
13.05
13.74
14.23
14.19
13.54
12.47
11.33
10.31
9.38
8.24
6.44
3.72
0.08
-4.13
-8.40
-12.28
-15.58
-18.44
-21.19
-24.22
-27.77
-31.78
-35.94
-39.63
-42.08
-42.56
-40.65
-36.38
-30.32
-23.40
-16.61
-10.75
-6.21
-2.98
-0.82
0.61
1.61
2.43
3.27
4.35
5.90
8.08
10.89
14.20
17.71
21.07
24.03
26.51
28.52
30.09
31.16
31.54
30.98
29.29
26.47
22.79
18.65
14.47
10.59
7.10
3.94
0.93
-2.14
-5.47
-9.30
-13.74
-18.78
-24.07
-28.91
-32.28
-33.20
-31.03
-25.82
-18.38
-10.04
-2.22
4.01
8.19
10.51
11.50
11.80
11.86
11.83
11.72
11.43
10.96
10.42
9.97
9.82
10.05
10.73
11.86
13.51
15.78
18.78
22.49
26.62
30.70
34.15
36.63
38.25
39.54
41.31
44.15
48.17
52.77
56.81
59.08
58.74
55.72
50.73
44.97
39.72
35.86
33.65
32.72
32.32
31.67
30.19
27.62
23.94
19.29
13.83
7.77
1.34
-5.16
-11.41
-17.13
-22.19
-26.52
-30.16
-33.09
-35.24
-36.56
-37.07
-36.96
-36.57
-36.26
-36.34
-36.86
-37.75
-38.75
-39.60
-40.16
-40.43
-40.54
-40.74
-41.26
-42.17
-43.36
-44.48
-44.95
-44.14
-41.46
-36.61
-29.60
-20.81
-10.84
-0.38
9.86
19.33
27.54
34.16
38.98
41.96
43.19
42.95
41.56
39.43
37.05
34.85
33.18
32.19
31.67
31.24
30.38
28.68
26.00
22.38
17.91
12.54
6.02
-1.94
-11.42
-22.19
-33.73
-45.36
-56.50
-66.64
-75.31
-81.91
-85.78
-86.33
-83.37
-77.26
-68.87
-59.35
-49.84
-41.22
-33.95
-28.21
-23.78
-20.28
-17.13
-13.79
-9.82
-5.08
0.28
5.88
11.20
15.76
19.15
21.06
21.35
20.15
17.98
15.67
14.09
13.81
14.83
16.66
18.68
20.59
22.54
24.93
27.84
30.75
32.53
32.12
29.23
24.71
20.31
17.81
18.19
21.09
25.24
29.08
31.58
32.51
32.24
31.16
29.32
26.45
22.30
17.05
11.57
7.05
4.58
4.64
6.84
10.26
13.72
16.33
17.67
17.78
16.96
15.50
13.58
11.23
8.43
5.31
2.15
-0.59
-2.51
-3.35
-3.22
-2.58
-2.12
-2.59
-4.51
-8.00
-12.74
-17.96
-22.68
-25.84
-26.63
-24.65
-20.05
-13.50
-5.94
1.63
8.36
13.67
17.26
19.02
19.06
17.65
15.24
12.35
9.50
7.12
5.45
4.54
4.19
4.05
3.58
2.40
0.31
-2.54
-5.51
-7.79
-8.50
-7.00
-3.03
3.25
11.40
20.79
30.71
40.44
49.27
56.50
61.47
63.65
62.66
58.46
51.43
42.43
32.76
23.83
16.79
12.10
9.49
8.07
6.85
5.21
3.20
1.46
0.83
1.95
4.87
9.05
13.55
17.36
19.78
20.56
19.94
18.53
17.06
16.25
16.62
18.46
21.74
26.09
30.77
34.78
36.99
36.55
33.12
27.13
19.59
11.70
4.45
-1.86
-7.59
-13.45
-20.14
-27.89
-36.42
-45.09
-53.17
-60.16
-65.91
-70.60
-74.54
-77.96
-80.91
-83.23
-84.57
-84.57
-82.87
-79.20
-73.47
-65.81
-56.67
-46.82
-37.22
-28.83
-22.33
-17.92
-15.31
-13.86
-12.81
-11.55
-9.72
-7.28
-4.47
-1.64
0.78
2.37
2.93
2.45
1.19
-0.42
-1.92
-2.95
-3.35
-3.16
-2.50
-1.47
-0.12
1.58
3.69
6.24
9.19
12.39
15.61
18.47
20.54
21.41
20.73
18.31
14.25
8.88
2.82
-3.17
-8.26
-11.72
-13.13
-12.42
-9.82
-5.88
-1.28
3.33
7.36
10.44
12.48
13.64
14.26
14.74
15.40
16.38
17.52
18.42
18.49
17.14
13.95
8.88
2.32
-4.88
-11.66
-16.96
-20.01
-20.57
-18.93
-15.74
-11.80
-7.82
-4.29
-1.53
0.29
1.06
0.81
-0.31
-2.01
-3.85
-5.42
-6.47
-6.97
-7.12
-7.08
-6.84
-6.13
-4.53
-1.66
2.52
7.71
13.24
18.33
22.31
24.76
25.54
24.77
22.72
19.71
16.12
12.27
8.50
5.14
2.41
0.48
-0.68
-1.23
-1.43
-1.56
-1.77
-2.03
-2.26
-2.32
-2.25
-2.18
-2.36
-2.98
-4.08
-5.58
-7.25
-8.92
-10.47
-11.92
-13.32
-14.71
-16.09
-17.39
-18.46
-19.04
-18.78
-17.35
-14.49
-10.18
-4.74
1.25
7.04
11.85
15.09
16.38
15.74
13.44
10.03
6.20
2.56
-0.45
-2.69
-4.34
-5.71
-7.13
-8.72
-10.43
-12.06
-13.43
-14.50
-15.35
-16.10
-16.83
-17.52
-18.09
-18.50
-18.81
-19.17
-19.76
-20.63
-21.72
-22.83
-23.81
-24.63
-25.40
-26.22
-27.04
-27.51
-27.03
-24.97
-21.02
-15.35
-8.62
-1.79
4.24
8.81
11.76
13.23
13.54
13.09
12.17
11.01
9.74
8.45
7.25
6.24
5.51
5.13
5.08
5.29
5.62
5.89
5.95
5.70
5.10
4.17
2.95
1.42
-0.38
-2.46
-4.72
-6.96
-8.98
-10.64
-11.96
-13.12
-14.25
-15.36
-16.11
-15.89
-14.10
-10.40
-5.01
1.36
7.71
13.13
17.07
19.41
20.41
20.43
19.79
18.68
17.12
15.16
12.89
10.61
8.69
7.47
7.12
7.49
8.23
8.86
9.04
8.69
7.93
6.98
5.96
4.82
3.44
1.68
-0.48
-2.89
-5.39
-7.83
-10.17
-12.36
-14.25
-15.53
-15.77
-14.57
-11.74
-7.50
-2.40
2.75
7.12
10.15
11.60
11.67
10.88
9.81
8.92
8.42
8.25
8.26
8.35
8.60
9.20
10.28
11.79
13.38
14.56
14.85
14.05
12.23
9.76
7.11
4.60
2.40
0.49
-1.21
-2.71
-4.04
-5.18
-6.26
-7.48
-9.05
-11.04
-13.16
-14.80
-15.25
-13.93
-10.78
-6.22
-1.16
3.46
6.89
8.85
9.49
9.23
8.54
7.82
7.33
7.21
7.52
8.30
9.54
11.18
13.12
15.21
17.27
19.13
20.63
21.60
21.86
21.19
19.36
16.19
11.65
5.95
-0.43
-6.80
-12.42
-16.68
-19.31
-20.36
-20.22
-19.46
-18.68
-18.34
-18.71
-19.78
-21.38
-23.21
-24.99
-26.48
-27.47
-27.67
-26.63
-23.88
-19.05
-12.13
-3.68
5.35
13.78
20.70
25.60
28.49
29.80
30.15
30.20
30.56
31.73
34.02
37.60
42.41
48.19
54.58
61.10
67.30
72.76
77.22
80.69
83.43
86.04
89.23
93.57
99.20
105.59
111.51
115.28
115.18
110.03
99.69
85.38
69.70
56.13
48.24
48.71
58.49
76.49
100.07
125.96
151.39
174.84
195.98
215.09
232.28
246.97
258.07
264.50
265.70
261.74
253.03
239.82
221.93
198.89
170.39
136.65
98.61
57.77
15.83
-25.55
-64.81
-100.57
-131.65
-157.36
-177.72
-193.60
-206.46
-217.68
-227.88
-236.54
-242.23
-243.28
-238.76
-228.86
-214.90
-198.61
-181.44
-164.10
-146.72
-129.38
-112.50
-96.92
-83.49
-72.56
-63.66
-55.79
-47.83
-39.16
-29.80
-20.34
-11.48
-3.65
3.13
9.15
14.84
20.52
26.38
32.36
38.12
42.90
45.64
45.22
40.92
32.87
22.16
10.58
-0.09
-8.66
-14.96
-19.64
-23.68
-27.81
-32.07
-35.91
-38.55
-39.43
-38.54
-36.40
-33.77
-31.17
-28.63
-25.65
-21.50
-15.64
-8.16
0.24
8.46
15.55
21.05
25.16
28.46
31.47
34.24
36.21
36.47
34.20
29.03
21.31
11.88
1.81
-8.01
-17.02
-25.02
-32.06
-38.40
-44.42
-50.60
-57.43
-65.15
-73.45
-81.38
-87.57
-90.78
-90.55
-87.54
-83.38
-80.16
-79.60
-82.50
-88.55
-96.49
-104.63
-111.25
-114.99
-115.05
-111.27
-104.10
-94.53
-83.91
-73.63
-64.96
-58.82
-55.61
-55.25
-57.20
-60.56
-64.23
-67.10
-68.23
-67.08
-63.71
-58.72
-53.21
-48.57
-45.94
-45.95
-48.35
-52.11
-55.78
-57.96
-57.88
-55.69
-52.35
-49.47
-48.85
-52.03
-59.79
-71.78
-86.26
-100.28
-110.43
-113.79
-109.17
-97.52
-81.78
-65.81
-53.06
-45.56
-43.51
-45.69
-50.33
-55.90
-61.56
-67.19
-72.93
-78.78
-84.27
-88.44
-90.16
-88.66
-83.86
-76.52
-67.97
-59.53
-52.05
-45.65
-39.89
-34.24
-28.43
-22.67
-17.43
-13.05
-9.59
-6.65
-3.68
-0.25
3.76
8.21
12.90
17.81
23.18
29.38
36.64
44.75
53.02
60.40
65.85
68.64
68.59
66.05
61.75
56.60
51.37
46.61
42.56
39.25
36.64
34.66
33.25
32.30
31.66
30.98
29.85
27.94
25.07
21.35
17.09
12.70
8.56
4.91
1.78
-0.97
-3.61
-6.50
-9.98
-14.26
-19.22
-24.32
-28.59
-30.82
-29.94
-25.43
-17.58
-7.45
3.47
13.69
22.15
28.37
32.39
34.61
35.56
35.72
35.51
35.28
35.33
35.93
37.30
39.61
42.89
46.96
51.36
55.40
58.31
59.46
58.60
55.92
51.94
47.31
42.53
37.81
33.12
28.21
22.84
16.80
10.01
2.56
-5.20
-12.65
-18.84
-22.74
-23.52
-20.89
-15.25
-7.64
0.65
8.43
14.91
19.83
23.27
25.45
26.62
27.03
26.96
26.80
26.96
27.70
29.03
30.70
32.30
33.42
33.80
33.40
32.37
30.89
29.20
27.51
25.98
24.71
23.68
22.67
21.36
19.32
16.19
11.76
6.01
-0.83
-8.27
-15.53
-21.58
-25.36
-26.02
-23.17
-17.15
-8.89
0.31
9.14
16.66
22.39
26.33
28.90
30.69
32.35
34.43
37.24
40.78
44.69
48.46
51.53
53.60
54.70
55.08
55.05
54.76
54.11
52.78
50.38
46.63
41.41
34.83
27.19
18.93
10.61
2.78
-4.05
-9.64
-14.10
-17.84
-21.43
-25.36
-29.79
-34.31
-38.03
-39.75
-38.43
-33.55
-25.40
-15.07
-4.14
5.88
13.99
19.96
24.20
27.42
30.27
33.04
35.63
37.79
39.33
40.27
40.82
41.25
41.74
42.30
42.81
43.12
43.16
43.03
42.89
42.86
42.86
42.60
41.63
39.58
36.33
32.09
27.38
22.77
18.77
15.55
12.95
10.54
7.76
4.09
-0.77
-6.88
-13.88
-21.06
-27.36
-31.64
-32.95
-30.81
-25.46
-17.83
-9.29
-1.28
5.10
9.29
11.41
12.00
11.83
11.64
11.94
12.94
14.54
16.45
18.33
19.87
20.88
21.31
21.19
20.61
19.61
18.32
16.85
15.35
13.95
12.66
11.38
9.98
8.43
6.87
5.60
4.95
5.05
5.63
6.11
5.74
3.97
0.74
-3.27
-6.80
-8.34
-6.70
-1.40
7.18
17.90
29.39
40.49
50.59
59.60
67.77
75.29
82.07
87.68
91.58
93.34
92.84
90.38
86.45
81.51
75.71
68.85
60.55
50.56
38.99
26.44
13.79
1.86
-8.95
-18.80
-28.36
-38.35
-49.25
-60.92
-72.66
-83.48
-92.45
-98.95
-102.84
-104.30
-103.64
-101.16
-97.07
-91.48
-84.40
-75.74
-65.18
-52.21
-36.32
-17.36
4.06
26.35
47.11
63.74
74.31
78.34
76.98
72.65
68.08
65.32
65.18
67.37
71.12
76.02
82.27
90.49
100.95
112.89
124.21
131.97
133.04
124.96
106.25
76.53
36.47
-11.94
-65.05
-117.32
-161.71
-191.01
-199.78
-186.45
-154.32
-111.05
-66.62
-30.48
-8.98
-4.04
-13.36
-31.88
-53.65
-73.47
-87.77
-94.72
-94.06
-86.67
-74.28
-59.18
-43.81
-30.37
-20.40
-14.47
-12.14
-12.24
-13.25
-13.85
-13.32
-11.77
-9.87
-8.56
-8.48
-9.73
-11.80
-13.81
-15.07
-15.32
-14.84
-14.27
-14.21
-15.02
-16.66
-18.85
-21.21
-23.48
-25.60
-27.63
-29.78
-32.25
-35.18
-38.55
-42.06
-45.12
-46.95
-46.75
-43.97
-38.50
-30.80
-21.77
-12.63
-4.47
1.89
6.10
8.35
9.12
9.03
8.64
8.24
7.94
7.61
7.10
6.34
5.37
4.37
3.49
2.82
2.36
2.05
1.84
1.70
1.74
2.06
2.73
3.70
4.72
5.45
5.49
4.54
2.44
-0.77
-4.91
-9.65
-14.54
-18.96
-22.32
-24.03
-23.79
-21.64
-18.02
-13.66
-9.37
-5.80
-3.30
-1.85
-1.21
-1.05
-1.10
-1.22
-1.46
-1.97
-2.94
-4.49
-6.55
-8.90
-11.21
-13.13
-14.47
-15.16
-15.26
-14.82
-13.80
-12.14
-9.87
-7.18
-4.47
-2.26
-1.04
-1.14
-2.72
-5.72
-9.93
-14.96
-20.15
-24.66
-27.49
-27.81
-25.08
-19.36
-11.26
-1.86
7.57
15.85
22.17
26.19
28.11
28.46
27.82
26.73
25.45
24.09
22.66
21.23
19.94
18.91
18.22
17.79
17.49
17.16
16.71
16.13
15.43
14.65
13.81
12.91
11.92
10.75
9.31
7.55
5.50
3.26
0.86
-1.75
-4.78
-8.46
-12.80
-17.34
-21.21
-23.29
-22.76
-19.41
-13.86
-7.29
-0.99
4.15
7.85
10.42
12.43
14.33
16.29
18.19
19.78
21.00
21.96
22.92
24.17
25.77
27.53
29.03
29.87
29.77
28.69
26.76
24.19
21.17
17.82
14.18
10.37
6.53
2.90
-0.23
-2.61
-4.12
-4.79
-4.88
-4.77
-4.86
-5.48
-6.81
-8.83
-11.43
-14.35
-17.30
-19.92
-21.71
-22.12
-20.71
-17.27
-12.04
-5.68
0.89
6.75
11.27
14.23
15.78
16.29
16.17
15.74
15.21
14.78
14.63
15.02
16.17
18.18
20.89
23.88
26.51
28.20
28.58
27.73
26.06
24.08
22.12
20.16
17.87
14.81
10.79
5.99
0.89
-3.84
-7.78
-10.87
-13.41
-15.90
-18.78
-22.22
-26.02
-29.69
-32.50
-33.68
-32.62
-28.98
-22.88
-14.87
-5.78
3.45
12.02
19.32
25.01
29.00
31.34
32.29
32.22
31.59
30.83
30.26
30.02
30.03
30.18
30.30
30.29
30.06
29.48
28.41
26.69
24.25
21.17
17.70
14.17
10.83
7.80
5.00
2.20
-0.78
-4.01
-7.26
-10.19
-12.42
-13.78
-14.38
-14.59
-14.89
-15.69
-17.27
-19.66
-22.70
-25.97
-28.84
-30.50
-30.18
-27.33
-21.91
-14.42
-5.86
2.56
9.71
14.81
17.61
18.42
17.90
16.87
16.01
15.71
16.04
16.74
17.52
18.22
18.83
19.52
20.41
21.47
22.43
22.95
22.76
21.87
20.55
19.18
18.06
17.27
16.61
15.77
14.44
12.51
10.09
7.45
4.92
2.68
0.75
-1.02
-2.89
-5.09
-7.77
-11.01
-14.85
-19.23
-23.92
-28.45
-32.01
-33.69
-32.68
-28.63
-21.93
-13.60
-5.05
2.34
7.70
10.85
12.19
12.49
12.44
12.51
12.80
13.24
13.67
14.14
14.80
15.81
17.20
18.68
19.78
19.98
19.02
16.99
14.36
11.76
9.65
8.17
7.06
5.77
3.84
1.06
-2.34
-5.88
-8.98
-11.32
-12.91
-14.13
-15.47
-17.33
-19.84
-22.80
-25.72
-27.96
-28.81
-27.68
-24.26
-18.62
-11.26
-3.01
5.12
12.20
17.59
21.01
22.54
22.53
21.47
19.89
18.26
16.98
16.31
16.29
16.84
17.72
18.66
19.50
20.10
20.44
20.48
20.15
19.37
18.10
16.42
14.53
12.66
10.97
9.46
7.94
6.17
3.94
1.21
-1.82
-4.81
-7.45
-9.60
-11.34
-12.96
-14.79
-17.14
-20.13
-23.70
-27.60
-31.38
-34.47
-36.11
-35.60
-32.43
-26.60
-18.67
-9.74
-1.09
6.15
11.34
14.42
15.80
16.08
15.82
15.42
15.06
14.85
14.78
14.95
15.38
16.05
16.87
17.57
17.87
17.55
16.59
15.19
13.74
12.62
12.00
11.79
11.69
11.34
10.54
9.27
7.78
6.34
5.16
4.20
3.21
1.83
-0.24
-3.04
-6.33
-9.68
-12.61
-14.87
-16.53
-17.94
-19.65
-22.09
-25.45
-29.53
-33.71
-37.13
-38.86
-38.13
-34.53
-28.20
-19.82
-10.48
-1.44
6.21
11.71
14.82
15.79
15.19
13.79
12.32
11.31
11.06
11.54
12.56
13.82
15.05
16.05
16.68
16.90
16.62
15.74
14.22
12.05
9.46
6.76
4.33
2.49
1.31
0.59
-0.05
-0.98
-2.39
-4.23
-6.33
-8.52
-10.71
-12.99
-15.42
-18.00
-20.59
-22.97
-24.97
-26.49
-27.48
-27.84
-27.39
-25.82
-22.90
-18.57
-13.13
-7.12
-1.26
3.83
7.75
10.42
12.05
13.03
13.74
14.49
15.33
16.17
16.82
17.17
17.24
17.19
17.18
17.22
17.12
16.61
15.41
13.50
11.04
8.41
6.01
4.14
2.97
2.55
2.79
3.54
4.60
5.71
6.68
7.36
7.76
8.01
8.28
8.68
9.21
9.62
9.49
8.19
5.07
-0.31
-7.93
-17.05
-26.22
-33.52
-37.09
-35.80
-29.65
-19.88
-8.61
1.88
9.70
13.82
14.05
10.85
4.98
-2.57
-10.68
-18.03
-23.23
-25.10
-23.06
-17.42
-9.36
-0.66
6.93
12.08
14.29
13.73
11.00
6.80
1.72
-3.69
-8.81
-12.80
-14.75
-13.93
-10.19
-4.19
2.63
8.46
11.64
11.24
7.39
1.32
-5.07
-9.72
-11.20
-9.12
-4.32
1.44
6.10
7.94
6.05
0.47
-7.95
-17.89
-27.69
-35.75
-40.61
-41.33
-37.77
-30.62
-21.44
-12.10
-4.18
1.56
5.31
8.00
10.69
13.98
17.75
21.25
23.45
23.53
21.11
16.32
9.71
2.03
-5.89
-13.25
-19.28
-23.35
-25.07
-24.40
-21.74
-17.85
-13.67
-10.17
-8.10
-7.87
-9.35
-11.93
-14.70
-16.63
-16.97
-15.37
-11.97
-7.22
-1.74
3.85
8.97
13.01
15.37
15.56
13.37
9.11
3.60
-1.91
-6.07
-7.92
-7.04
-3.77
1.05
6.35
11.07
14.45
16.02
15.67
13.63
10.44
6.95
4.10
2.69
3.11
5.05
7.62
9.55
9.74
7.67
3.64
-1.37
-6.18
-9.89
-12.27
-13.74
-15.03
-16.87
-19.57
-22.95
-26.34
-28.73
-29.01
-26.13
-19.48
-9.06
4.37
19.46
34.56
48.24
59.59
68.26
74.31
77.91
79.08
77.69
73.63
67.02
58.34
48.38
38.09
28.40
20.06
13.58
9.14
6.68
5.90
6.30
7.33
8.36
8.93
8.73
7.70
5.89
3.37
-0.00
-4.48
-10.29
-17.39
-25.20
-32.80
-39.07
-43.11
-44.52
-43.44
-40.40
-36.17
-31.46
-26.89
-22.87
-19.54
-16.60
-13.34
-8.77
-1.94
7.64
19.64
32.95
45.94
56.85
64.37
67.80
67.20
63.17
56.71
48.93
40.95
33.58
27.28
22.07
17.69
13.82
10.25
6.81
3.29
-0.83
-6.38
-14.08
-24.13
-35.94
-48.10
-59.01
-67.37
-72.68
-75.18
-75.45
-73.98
-70.85
-65.93
-59.27
-51.52
-44.00
-38.40
-36.25
-38.27
-44.05
-52.03
-60.02
-65.78
-67.66
-64.90
-57.63
-46.64
-33.06
-18.22
-3.42
10.06
21.29
29.79
35.90
40.63
45.26
50.63
56.36
60.61
60.59
53.88
39.85
20.42
-0.25
-17.24
-26.57
-26.54
-18.03
-4.11
10.90
22.38
26.38
20.56
4.94
-17.77
-42.76
-64.53
-78.68
-83.34
-79.59
-70.61
-60.24
-51.57
-46.02
-43.50
-42.81
-42.41
-40.98
-37.65
-32.01
-24.00
-13.94
-2.61
8.60
17.73
22.70
22.14
16.16
6.51
-3.81
-11.76
-15.39
-14.33
-9.56
-2.44
6.05
15.57
26.14
37.51
49.03
59.79
69.04
76.51
82.43
87.10
90.66
92.89
93.57
92.85
91.50
90.67
91.27
93.31
95.45
95.29
89.98
77.34
56.59
28.94
-2.58
-33.86
-60.75
-80.21
-91.18
-94.70
-93.46
-90.74
-89.18
-89.97
-92.51
-94.97
-95.12
-91.29
-82.99
-70.92
-56.57
-41.68
-27.67
-15.40
-4.97
4.14
13.03
22.94
34.74
48.31
61.99
72.66
76.46
70.35
53.51
27.94
-2.00
-31.27
-55.93
-74.15
-86.23
-93.44
-96.90
-96.83
-92.80
-84.40
-72.03
-57.01
-41.34
-26.96
-15.35
-7.23
-2.75
-1.52
-2.89
-6.04
-10.14
-14.47
-18.36
-21.21
-22.49
-21.85
-19.28
-15.21
-10.43
-5.80
-1.96
0.94
3.20
5.37
7.94
11.08
14.59
18.07
21.05
23.32
24.85
25.72
25.97
25.42
23.72
20.60
16.15
10.95
6.05
2.59
1.47
2.86
6.34
10.95
15.70
19.78
22.78
24.61
25.39
25.36
24.83
24.19
23.87
24.26
25.54
27.62
30.05
32.21
33.42
33.29
31.72
29.02
25.72
22.39
19.41
16.91
14.86
13.10
11.54
10.14
8.85
7.61
6.30
4.76
2.93
0.80
-1.60
-4.24
-7.22
-10.66
-14.57
-18.66
-22.24
-24.38
-24.17
-21.18
-15.61
-8.35
-0.65
6.23
11.44
14.73
16.40
17.04
17.24
17.37
17.46
17.38
16.91
15.99
14.68
13.14
11.50
9.82
8.06
6.22
4.41
2.83
1.69
1.09
0.91
0.86
0.58
-0.15
-1.33
-2.69
-3.91
-4.77
-5.31
-5.85
-6.84
-8.51
-10.75
-12.94
-14.20
-13.70
-10.96
-6.09
0.27
7.15
13.59
18.87
22.64
24.89
25.79
25.54
24.40
22.55
20.27
17.92
15.90
14.59
14.17
14.56
15.42
16.25
16.62
16.33
15.49
14.41
13.45
12.76
12.28
11.68
10.65
9.08
7.11
5.15
3.65
2.86
2.65
2.67
2.43
1.59
0.04
-2.09
-4.44
-6.59
-8.05
-8.42
-7.34
-4.73
-0.77
4.01
8.75
12.56
14.64
14.50
12.04
7.53
1.46
-5.56
-12.90
-19.94
-26.10
-30.85
-33.76
-34.51
-32.96
-29.28
-23.89
-17.48
-10.87
-4.79
0.23
3.94
6.32
7.48
7.46
6.25
3.89
0.48
-3.61
-7.82
-11.53
-14.27
-15.98
-17.00
-17.92
-19.30
-21.31
-23.61
-25.32
-25.37
-22.74
-16.77
-7.33
5.26
20.20
36.47
52.87
68.21
81.48
91.99
99.45
103.97
105.94
106.00
104.79
102.93
100.84
98.73
96.55
94.08
91.16
87.76
84.12
80.58
77.28
73.90
69.53
62.84
52.62
38.24
20.06
-0.66
-22.05
-42.34
-60.36
-75.74
-88.83
-100.20
-110.33
-119.33
-127.06
-133.42
-138.49
-142.54
-145.85
-148.51
-150.39
-151.30
-151.29
-150.51
-149.00
-146.41
-141.81
-134.14
-122.72
-107.78
-90.53
-72.67
-55.76
-40.68
-27.55
-15.99
-5.64
3.60
11.52
17.85
22.46
25.42
26.91
27.24
26.69
25.59
24.20
22.80
21.59
20.81
20.74
21.65
23.77
27.06
31.12
35.25
38.70
41.03
42.33
43.26
44.70
47.29
50.95
54.79
57.45
57.61
54.61
48.77
41.21
33.48
26.97
22.59
20.57
20.71
22.56
25.66
29.63
34.10
38.76
43.24
47.19
50.42
52.91
54.75
55.94
56.19
54.74
50.45
42.10
28.81
10.47
-12.01
-36.68
-60.90
-81.85
-97.21
-105.62
-106.95
-102.06
-92.35
-79.19
-63.64
-46.35
-27.87
-8.95
9.44
26.25
40.83
53.12
63.71
73.38
82.59
91.15
98.21
102.75
104.05
102.10
97.59
91.51
84.68
77.48
69.68
60.84
50.65
39.15
26.83
14.43
2.77
-7.36
-15.22
-20.25
-22.33
-22.08
-21.00
-21.17
-24.53
-31.99
-42.90
-55.15
-66.01
-73.15
-75.46
-73.15
-67.28
-59.00
-49.13
-38.12
-26.44
-15.05
-5.45
0.64
1.89
-1.99
-10.22
-21.10
-32.76
-43.68
-53.11
-61.04
-67.84
-73.86
-79.05
-83.04
-85.39
-85.99
-85.35
-84.47
-84.44
-85.97
-88.89
-92.29
-94.74
-94.81
-91.55
-84.62
-74.24
-60.99
-45.54
-28.57
-10.73
7.34
25.00
41.64
56.82
70.31
82.09
92.49
102.03
111.43
121.21
131.58
142.16
152.01
159.85
164.32
164.43
159.64
150.01
136.05
118.52
98.28
76.26
53.35
30.53
8.82
-10.93
-28.15
-42.82
-55.32
-66.19
-75.69
-83.41
-88.40
-89.48
-85.98
-78.10
-67.00
-54.47
-42.22
-31.49
-22.80
-16.19
-11.51
-8.72
-7.93
-9.22
-12.39
-16.88
-21.88
-26.62
-30.61
-33.89
-36.99
-40.77
-46.20
-54.02
-64.50
-77.28
-91.30
-104.99
-116.56
-124.53
-128.06
-127.40
-123.81
-119.21
-115.69
-114.66
-116.48
-120.29
-124.28
-126.34
-124.81
-118.99
-109.28
-96.90
-83.39
-70.04
-57.57
-46.20
-35.85
-26.44
-18.01
-10.62
-4.29
1.26
6.49
11.88
17.75
24.09
30.50
36.35
40.92
43.53
43.82
41.75
37.63
32.07
25.79
19.46
13.67
8.84
5.31
3.32
2.84
3.61
4.99
6.18
6.50
5.74
4.42
3.74
5.28
10.45
20.01
33.59
49.63
65.68
79.02
87.55
90.34
87.74
81.03
71.65
60.77
49.14
37.32
25.95
15.81
7.57
1.39
-3.23
-7.27
-11.76
-17.29
-23.82
-30.80
-37.44
-43.03
-47.13
-49.59
-50.58
-50.56
-50.24
-50.28
-50.94
-51.59
-50.81
-46.82
-38.26
-24.97
-8.13
10.20
28.02
44.29
59.28
74.18
90.31
108.40
128.24
149.07
170.03
190.63
210.86
230.91
250.90
270.66
289.65
306.90
320.88
329.51
330.46
321.71
302.37
273.25
236.96
197.26
158.01
122.21
91.28
65.10
42.48
21.83
1.80
-18.33
-38.58
-58.37
-76.75
-92.67
-105.15
-113.36
-116.62
-114.48
-106.80
-93.99
-77.07
-57.59
-37.38
-18.09
-0.94
13.33
24.30
31.44
33.94
30.71
20.66
3.20
-21.28
-51.28
-84.30
-117.35
-147.63
-173.22
-193.30
-208.11
-218.49
-225.23
-228.78
-229.17
-226.32
-220.43
-212.12
-202.24
-191.41
-179.60
-165.93
-149.00
-127.42
-100.24
-67.30
-29.05
13.57
59.20
106.15
152.34
195.55
233.74
265.37
289.68
306.51
316.18
319.21
316.36
308.60
297.02
282.64
265.94
246.82
224.72
199.17
170.30
139.07
107.02
75.71
46.27
19.15
-5.78
-28.87
-50.46
-70.75
-89.77
-107.52
-123.95
-138.91
-152.03
-162.77
-170.56
-175.02
-176.23
-174.76
-171.54
-167.52
-163.39
-159.39
-155.43
-151.29
-146.91
-142.38
-137.87
-133.38
-128.64
-123.26
-116.94
-109.76
-102.22
-95.01
-88.79
-83.94
-80.62
-78.81
-78.56
-80.01
-83.28
-88.32
-94.74
-101.79
-108.52
-114.05
-117.92
-120.25
-121.64
-122.70
-123.56
-123.49
-120.95
-114.21
-102.07
-84.50
-62.72
-38.80
-15.05
6.61
24.87
39.01
48.72
54.09
55.60
54.18
51.11
47.68
44.86
43.06
42.15
41.64
40.98
39.77
37.81
35.12
31.85
28.21
24.39
20.54
16.76
13.18
9.89
6.95
4.33
1.76
-1.23
-5.22
-10.60
-17.20
-24.14
-29.92
-32.83
-31.65
-26.15
-17.18
-6.39
4.39
13.80
21.17
26.49
30.06
32.25
33.30
33.42
32.84
31.92
31.05
30.59
30.74
31.45
32.52
33.61
34.41
34.69
34.37
33.47
32.02
29.98
27.21
23.57
19.05
13.90
8.56
3.56
-0.80
-4.62
-8.42
-12.83
-18.17
-24.05
-29.30
-32.29
-31.51
-26.31
-17.14
-5.45
6.82
17.98
27.06
33.90
38.88
42.48
44.92
46.26
46.50
45.87
44.92
44.30
44.52
45.69
47.42
48.98
49.64
48.92
46.81
43.75
40.32
37.05
34.09
31.26
28.19
24.58
20.46
16.13
12.09
8.73
6.14
4.09
2.10
-0.31
-3.47
-7.60
-12.84
-19.21
-26.54
-34.15
-40.83
-44.94
-44.93
-39.99
-30.51
-18.05
-4.86
6.86
15.77
21.56
24.77
26.34
26.98
27.10
26.80
26.20
25.61
25.49
26.24
27.93
30.24
32.57
34.33
35.23
35.31
34.88
34.30
33.72
33.03
31.88
29.87
26.70
22.37
17.13
11.41
5.67
0.15
-5.20
-10.65
-16.66
-23.52
-31.11
-38.74
-45.15
-48.87
-48.71
-44.23
-35.99
-25.33
-13.94
-3.25
5.91
13.34
19.16
23.52
26.37
27.50
